[Measurement conditions]
Sample identification,NaCl_TT_300
Comment,
Anode material,Cu
K-Alpha1 wavelength,1.5405980
K-Alpha2 wavelength,1.5444260
Ratio K-Alpha2/K-Alpha1,0.500
Divergence slit,Fixed,0.76mm
Monochromator used,NO
Generator voltage, 40
Tube current,  8
File date and time,28/Jun./2022 02:03
Unit cell,
h k l, 0 0 0
Scan axis,Gonio
Scan range,5.000000000,110.013276160
Scan step size,0.0217329
No. of points, 4832
Scan type,CONTINUOUS
Time per step,49.470
[Scan points]
Angle,Intensity
5.010866440,3868.0
5.032599320,3801.0
5.054332200,3824.0
5.076065080,3900.0
5.097797960,3654.0
5.119530840,3651.0
5.141263720,3707.0
5.162996600,3611.0
5.184729480,3569.0
5.206462360,3714.0
5.228195240,3418.0
5.249928120,3503.0
5.271661000,3419.0
5.293393880,3418.0
5.315126760,3314.0
5.336859640,3289.0
5.358592520,3313.0
5.380325400,3269.0
5.402058280,3314.0
5.423791160,3206.0
5.445524040,3199.0
5.467256920,3180.0
5.488989800,3034.0
5.510722680,3090.0
5.532455560,3024.0
5.554188440,3085.0
5.575921320,3045.0
5.597654200,2971.0
5.619387080,2843.0
5.641119960,2959.0
5.662852840,2913.0
5.684585720,2780.0
5.706318600,2850.0
5.728051480,2876.0
5.749784360,2788.0
5.771517240,2731.0
5.793250120,2823.0
5.814983000,2813.0
5.836715880,2690.0
5.858448760,2718.0
5.880181640,2715.0
5.901914520,2686.0
5.923647400,2700.0
5.945380280,2576.0
5.967113160,2662.0
5.988846040,2673.0
6.010578920,2619.0
6.032311800,2655.0
6.054044680,2521.0
6.075777560,2546.0
6.097510440,2537.0
6.119243320,2511.0
6.140976200,2673.0
6.162709080,2542.0
6.184441960,2486.0
6.206174840,2580.0
6.227907720,2485.0
6.249640600,2439.0
6.271373480,2429.0
6.293106360,2510.0
6.314839240,2480.0
6.336572120,2364.0
6.358305000,2447.0
6.380037880,2312.0
6.401770760,2494.0
6.423503640,2480.0
6.445236520,2493.0
6.466969400,2415.0
6.488702280,2411.0
6.510435160,2339.0
6.532168040,2444.0
6.553900920,2459.0
6.575633800,2460.0
6.597366680,2418.0
6.619099560,2458.0
6.640832440,2392.0
6.662565320,2413.0
6.684298200,2487.0
6.706031080,2413.0
6.727763960,2478.0
6.749496840,2385.0
6.771229720,2365.0
6.792962600,2347.0
6.814695480,2329.0
6.836428360,2408.0
6.858161240,2416.0
6.879894120,2391.0
6.901627000,2385.0
6.923359880,2358.0
6.945092760,2433.0
6.966825640,2418.0
6.988558520,2378.0
7.010291400,2394.0
7.032024280,2354.0
7.053757160,2337.0
7.075490040,2406.0
7.097222920,2343.0
7.118955800,2404.0
7.140688680,2327.0
7.162421560,2336.0
7.184154440,2426.0
7.205887320,2441.0
7.227620200,2347.0
7.249353080,2437.0
7.271085960,2366.0
7.292818840,2360.0
7.314551720,2260.0
7.336284600,2367.0
7.358017480,2374.0
7.379750360,2324.0
7.401483240,2344.0
7.423216120,2256.0
7.444949000,2362.0
7.466681880,2301.0
7.488414760,2432.0
7.510147640,2456.0
7.531880520,2439.0
7.553613400,2380.0
7.575346280,2397.0
7.597079160,2425.0
7.618812040,2382.0
7.640544920,2447.0
7.662277800,2289.0
7.684010680,2437.0
7.705743560,2411.0
7.727476440,2353.0
7.749209320,2355.0
7.770942200,2369.0
7.792675080,2325.0
7.814407960,2360.0
7.836140840,2430.0
7.857873720,2278.0
7.879606600,2336.0
7.901339480,2384.0
7.923072360,2335.0
7.944805240,2305.0
7.966538120,2404.0
7.988271000,2411.0
8.010003880,2286.0
8.031736760,2379.0
8.053469640,2393.0
8.075202520,2470.0
8.096935400,2405.0
8.118668280,2499.0
8.140401160,2343.0
8.162134040,2483.0
8.183866920,2439.0
8.205599800,2418.0
8.227332680,2328.0
8.249065560,2296.0
8.270798440,2370.0
8.292531320,2389.0
8.314264200,2385.0
8.335997080,2309.0
8.357729960,2369.0
8.379462840,2342.0
8.401195720,2361.0
8.422928600,2341.0
8.444661480,2337.0
8.466394360,2258.0
8.488127240,2381.0
8.509860120,2485.0
8.531593000,2433.0
8.553325880,2424.0
8.575058760,2334.0
8.596791640,2368.0
8.618524520,2365.0
8.640257400,2349.0
8.661990280,2333.0
8.683723160,2406.0
8.705456040,2399.0
8.727188920,2425.0
8.748921800,2378.0
8.770654680,2450.0
8.792387560,2441.0
8.814120440,2441.0
8.835853320,2310.0
8.857586200,2373.0
8.879319080,2374.0
8.901051960,2363.0
8.922784840,2423.0
8.944517720,2387.0
8.966250600,2483.0
8.987983480,2350.0
9.009716360,2345.0
9.031449240,2467.0
9.053182120,2345.0
9.074915000,2322.0
9.096647880,2354.0
9.118380760,2539.0
9.140113640,2459.0
9.161846520,2464.0
9.183579400,2390.0
9.205312280,2411.0
9.227045160,2466.0
9.248778040,2394.0
9.270510920,2504.0
9.292243800,2421.0
9.313976680,2412.0
9.335709560,2409.0
9.357442440,2398.0
9.379175320,2407.0
9.400908200,2367.0
9.422641080,2391.0
9.444373960,2411.0
9.466106840,2413.0
9.487839720,2477.0
9.509572600,2475.0
9.531305480,2415.0
9.553038360,2417.0
9.574771240,2441.0
9.596504120,2400.0
9.618237000,2327.0
9.639969880,2507.0
9.661702760,2466.0
9.683435640,2341.0
9.705168520,2440.0
9.726901400,2538.0
9.748634280,2518.0
9.770367160,2458.0
9.792100040,2462.0
9.813832920,2470.0
9.835565800,2307.0
9.857298680,2515.0
9.879031560,2375.0
9.900764440,2344.0
9.922497320,2404.0
9.944230200,2467.0
9.965963080,2413.0
9.987695960,2379.0
10.009428840,2388.0
10.031161720,2413.0
10.052894600,2514.0
10.074627480,2427.0
10.096360360,2474.0
10.118093240,2479.0
10.139826120,2507.0
10.161559000,2528.0
10.183291880,2430.0
10.205024760,2387.0
10.226757640,2411.0
10.248490520,2523.0
10.270223400,2442.0
10.291956280,2395.0
10.313689160,2470.0
10.335422040,2559.0
10.357154920,2436.0
10.378887800,2377.0
10.400620680,2370.0
10.422353560,2514.0
10.444086440,2458.0
10.465819320,2374.0
10.487552200,2376.0
10.509285080,2441.0
10.531017960,2375.0
10.552750840,2333.0
10.574483720,2469.0
10.596216600,2470.0
10.617949480,2565.0
10.639682360,2416.0
10.661415240,2445.0
10.683148120,2436.0
10.704881000,2428.0
10.726613880,2444.0
10.748346760,2403.0
10.770079640,2446.0
10.791812520,2455.0
10.813545400,2440.0
10.835278280,2520.0
10.857011160,2468.0
10.878744040,2524.0
10.900476920,2468.0
10.922209800,2325.0
10.943942680,2469.0
10.965675560,2449.0
10.987408440,2475.0
11.009141320,2483.0
11.030874200,2412.0
11.052607080,2476.0
11.074339960,2368.0
11.096072840,2392.0
11.117805720,2433.0
11.139538600,2411.0
11.161271480,2395.0
11.183004360,2352.0
11.204737240,2483.0
11.226470120,2513.0
11.248203000,2433.0
11.269935880,2382.0
11.291668760,2579.0
11.313401640,2481.0
11.335134520,2409.0
11.356867400,2419.0
11.378600280,2411.0
11.400333160,2498.0
11.422066040,2462.0
11.443798920,2540.0
11.465531800,2489.0
11.487264680,2431.0
11.508997560,2380.0
11.530730440,2497.0
11.552463320,2488.0
11.574196200,2464.0
11.595929080,2444.0
11.617661960,2430.0
11.639394840,2463.0
11.661127720,2400.0
11.682860600,2504.0
11.704593480,2432.0
11.726326360,2495.0
11.748059240,2401.0
11.769792120,2441.0
11.791525000,2462.0
11.813257880,2537.0
11.834990760,2501.0
11.856723640,2417.0
11.878456520,2417.0
11.900189400,2406.0
11.921922280,2373.0
11.943655160,2390.0
11.965388040,2378.0
11.987120920,2421.0
12.008853800,2426.0
12.030586680,2489.0
12.052319560,2393.0
12.074052440,2401.0
12.095785320,2387.0
12.117518200,2474.0
12.139251080,2349.0
12.160983960,2386.0
12.182716840,2408.0
12.204449720,2474.0
12.226182600,2470.0
12.247915480,2410.0
12.269648360,2563.0
12.291381240,2460.0
12.313114120,2426.0
12.334847000,2441.0
12.356579880,2421.0
12.378312760,2340.0
12.400045640,2423.0
12.421778520,2408.0
12.443511400,2396.0
12.465244280,2383.0
12.486977160,2510.0
12.508710040,2382.0
12.530442920,2297.0
12.552175800,2293.0
12.573908680,2376.0
12.595641560,2428.0
12.617374440,2309.0
12.639107320,2457.0
12.660840200,2527.0
12.682573080,2463.0
12.704305960,2376.0
12.726038840,2348.0
12.747771720,2288.0
12.769504600,2363.0
12.791237480,2374.0
12.812970360,2394.0
12.834703240,2401.0
12.856436120,2348.0
12.878169000,2366.0
12.899901880,2316.0
12.921634760,2474.0
12.943367640,2359.0
12.965100520,2390.0
12.986833400,2359.0
13.008566280,2323.0
13.030299160,2317.0
13.052032040,2472.0
13.073764920,2368.0
13.095497800,2390.0
13.117230680,2300.0
13.138963560,2313.0
13.160696440,2340.0
13.182429320,2314.0
13.204162200,2380.0
13.225895080,2227.0
13.247627960,2366.0
13.269360840,2253.0
13.291093720,2345.0
13.312826600,2411.0
13.334559480,2442.0
13.356292360,2307.0
13.378025240,2273.0
13.399758120,2303.0
13.421491000,2306.0
13.443223880,2271.0
13.464956760,2292.0
13.486689640,2352.0
13.508422520,2342.0
13.530155400,2410.0
13.551888280,2281.0
13.573621160,2360.0
13.595354040,2310.0
13.617086920,2282.0
13.638819800,2320.0
13.660552680,2235.0
13.682285560,2223.0
13.704018440,2214.0
13.725751320,2301.0
13.747484200,2197.0
13.769217080,2211.0
13.790949960,2302.0
13.812682840,2301.0
13.834415720,2350.0
13.856148600,2157.0
13.877881480,2138.0
13.899614360,2233.0
13.921347240,2155.0
13.943080120,2195.0
13.964813000,2221.0
13.986545880,2251.0
14.008278760,2216.0
14.030011640,2299.0
14.051744520,2212.0
14.073477400,2104.0
14.095210280,2224.0
14.116943160,2272.0
14.138676040,2224.0
14.160408920,2223.0
14.182141800,2198.0
14.203874680,2200.0
14.225607560,2240.0
14.247340440,2275.0
14.269073320,2234.0
14.290806200,2193.0
14.312539080,2177.0
14.334271960,2151.0
14.356004840,2231.0
14.377737720,2096.0
14.399470600,2186.0
14.421203480,2218.0
14.442936360,2215.0
14.464669240,2178.0
14.486402120,2255.0
14.508135000,2233.0
14.529867880,2201.0
14.551600760,2192.0
14.573333640,2236.0
14.595066520,2151.0
14.616799400,2213.0
14.638532280,2289.0
14.660265160,2249.0
14.681998040,2212.0
14.703730920,2223.0
14.725463800,2181.0
14.747196680,2311.0
14.768929560,2205.0
14.790662440,2210.0
14.812395320,2255.0
14.834128200,2204.0
14.855861080,2259.0
14.877593960,2193.0
14.899326840,2109.0
14.921059720,2053.0
14.942792600,2138.0
14.964525480,2066.0
14.986258360,2095.0
15.007991240,2069.0
15.029724120,2030.0
15.051457000,2038.0
15.073189880,2070.0
15.094922760,2094.0
15.116655640,2034.0
15.138388520,2082.0
15.160121400,2107.0
15.181854280,2091.0
15.203587160,2024.0
15.225320040,1978.0
15.247052920,2005.0
15.268785800,2052.0
15.290518680,1982.0
15.312251560,1940.0
15.333984440,2051.0
15.355717320,2041.0
15.377450200,2018.0
15.399183080,1925.0
15.420915960,2003.0
15.442648840,2030.0
15.464381720,1925.0
15.486114600,1924.0
15.507847480,1988.0
15.529580360,1976.0
15.551313240,2061.0
15.573046120,1978.0
15.594779000,2007.0
15.616511880,2008.0
15.638244760,1971.0
15.659977640,1972.0
15.681710520,1990.0
15.703443400,1970.0
15.725176280,1961.0
15.746909160,1947.0
15.768642040,1949.0
15.790374920,1884.0
15.812107800,1891.0
15.833840680,1927.0
15.855573560,1871.0
15.877306440,1932.0
15.899039320,1972.0
15.920772200,1906.0
15.942505080,1825.0
15.964237960,1866.0
15.985970840,1844.0
16.007703720,1915.0
16.029436600,1849.0
16.051169480,1848.0
16.072902360,1831.0
16.094635240,1871.0
16.116368120,1838.0
16.138101000,1903.0
16.159833880,1904.0
16.181566760,1890.0
16.203299640,1871.0
16.225032520,1800.0
16.246765400,1855.0
16.268498280,1921.0
16.290231160,1812.0
16.311964040,1812.0
16.333696920,1834.0
16.355429800,1797.0
16.377162680,1795.0
16.398895560,1792.0
16.420628440,1799.0
16.442361320,1807.0
16.464094200,1884.0
16.485827080,1776.0
16.507559960,1796.0
16.529292840,1897.0
16.551025720,1775.0
16.572758600,1876.0
16.594491480,1778.0
16.616224360,1755.0
16.637957240,1824.0
16.659690120,1752.0
16.681423000,1783.0
16.703155880,1792.0
16.724888760,1822.0
16.746621640,1821.0
16.768354520,1748.0
16.790087400,1791.0
16.811820280,1726.0
16.833553160,1728.0
16.855286040,1758.0
16.877018920,1797.0
16.898751800,1654.0
16.920484680,1685.0
16.942217560,1663.0
16.963950440,1804.0
16.985683320,1774.0
17.007416200,1747.0
17.029149080,1785.0
17.050881960,1726.0
17.072614840,1773.0
17.094347720,1714.0
17.116080600,1704.0
17.137813480,1716.0
17.159546360,1698.0
17.181279240,1748.0
17.203012120,1737.0
17.224745000,1683.0
17.246477880,1645.0
17.268210760,1670.0
17.289943640,1734.0
17.311676520,1714.0
17.333409400,1663.0
17.355142280,1731.0
17.376875160,1734.0
17.398608040,1685.0
17.420340920,1603.0
17.442073800,1732.0
17.463806680,1709.0
17.485539560,1624.0
17.507272440,1594.0
17.529005320,1755.0
17.550738200,1684.0
17.572471080,1645.0
17.594203960,1619.0
17.615936840,1636.0
17.637669720,1608.0
17.659402600,1603.0
17.681135480,1671.0
17.702868360,1574.0
17.724601240,1689.0
17.746334120,1585.0
17.768067000,1613.0
17.789799880,1562.0
17.811532760,1621.0
17.833265640,1557.0
17.854998520,1673.0
17.876731400,1629.0
17.898464280,1637.0
17.920197160,1609.0
17.941930040,1626.0
17.963662920,1515.0
17.985395800,1628.0
18.007128680,1631.0
18.028861560,1558.0
18.050594440,1579.0
18.072327320,1629.0
18.094060200,1599.0
18.115793080,1532.0
18.137525960,1560.0
18.159258840,1551.0
18.180991720,1590.0
18.202724600,1574.0
18.224457480,1579.0
18.246190360,1588.0
18.267923240,1586.0
18.289656120,1590.0
18.311389000,1592.0
18.333121880,1561.0
18.354854760,1564.0
18.376587640,1469.0
18.398320520,1606.0
18.420053400,1523.0
18.441786280,1594.0
18.463519160,1507.0
18.485252040,1566.0
18.506984920,1515.0
18.528717800,1473.0
18.550450680,1519.0
18.572183560,1543.0
18.593916440,1544.0
18.615649320,1478.0
18.637382200,1457.0
18.659115080,1501.0
18.680847960,1534.0
18.702580840,1581.0
18.724313720,1525.0
18.746046600,1460.0
18.767779480,1435.0
18.789512360,1423.0
18.811245240,1443.0
18.832978120,1464.0
18.854711000,1500.0
18.876443880,1506.0
18.898176760,1457.0
18.919909640,1454.0
18.941642520,1475.0
18.963375400,1486.0
18.985108280,1496.0
19.006841160,1465.0
19.028574040,1518.0
19.050306920,1429.0
19.072039800,1433.0
19.093772680,1493.0
19.115505560,1496.0
19.137238440,1384.0
19.158971320,1427.0
19.180704200,1490.0
19.202437080,1420.0
19.224169960,1430.0
19.245902840,1369.0
19.267635720,1455.0
19.289368600,1431.0
19.311101480,1485.0
19.332834360,1429.0
19.354567240,1358.0
19.376300120,1413.0
19.398033000,1420.0
19.419765880,1380.0
19.441498760,1462.0
19.463231640,1365.0
19.484964520,1387.0
19.506697400,1351.0
19.528430280,1419.0
19.550163160,1400.0
19.571896040,1424.0
19.593628920,1454.0
19.615361800,1308.0
19.637094680,1414.0
19.658827560,1420.0
19.680560440,1414.0
19.702293320,1407.0
19.724026200,1383.0
19.745759080,1372.0
19.767491960,1411.0
19.789224840,1416.0
19.810957720,1394.0
19.832690600,1342.0
19.854423480,1360.0
19.876156360,1318.0
19.897889240,1378.0
19.919622120,1387.0
19.941355000,1443.0
19.963087880,1418.0
19.984820760,1343.0
20.006553640,1325.0
20.028286520,1245.0
20.050019400,1271.0
20.071752280,1284.0
20.093485160,1377.0
20.115218040,1352.0
20.136950920,1349.0
20.158683800,1304.0
20.180416680,1354.0
20.202149560,1358.0
20.223882440,1282.0
20.245615320,1322.0
20.267348200,1296.0
20.289081080,1330.0
20.310813960,1357.0
20.332546840,1356.0
20.354279720,1264.0
20.376012600,1315.0
20.397745480,1322.0
20.419478360,1313.0
20.441211240,1373.0
20.462944120,1248.0
20.484677000,1349.0
20.506409880,1320.0
20.528142760,1335.0
20.549875640,1391.0
20.571608520,1306.0
20.593341400,1191.0
20.615074280,1309.0
20.636807160,1297.0
20.658540040,1293.0
20.680272920,1293.0
20.702005800,1294.0
20.723738680,1300.0
20.745471560,1313.0
20.767204440,1226.0
20.788937320,1246.0
20.810670200,1240.0
20.832403080,1336.0
20.854135960,1324.0
20.875868840,1279.0
20.897601720,1216.0
20.919334600,1268.0
20.941067480,1229.0
20.962800360,1308.0
20.984533240,1265.0
21.006266120,1208.0
21.027999000,1200.0
21.049731880,1287.0
21.071464760,1207.0
21.093197640,1250.0
21.114930520,1217.0
21.136663400,1238.0
21.158396280,1232.0
21.180129160,1176.0
21.201862040,1204.0
21.223594920,1153.0
21.245327800,1182.0
21.267060680,1220.0
21.288793560,1244.0
21.310526440,1236.0
21.332259320,1234.0
21.353992200,1185.0
21.375725080,1242.0
21.397457960,1193.0
21.419190840,1232.0
21.440923720,1247.0
21.462656600,1208.0
21.484389480,1220.0
21.506122360,1099.0
21.527855240,1215.0
21.549588120,1169.0
21.571321000,1184.0
21.593053880,1166.0
21.614786760,1199.0
21.636519640,1146.0
21.658252520,1176.0
21.679985400,1102.0
21.701718280,1137.0
21.723451160,1229.0
21.745184040,1153.0
21.766916920,1139.0
21.788649800,1150.0
21.810382680,1089.0
21.832115560,1162.0
21.853848440,1158.0
21.875581320,1117.0
21.897314200,1116.0
21.919047080,1119.0
21.940779960,1167.0
21.962512840,1100.0
21.984245720,1129.0
22.005978600,1107.0
22.027711480,1141.0
22.049444360,1117.0
22.071177240,1113.0
22.092910120,1107.0
22.114643000,1141.0
22.136375880,1086.0
22.158108760,1121.0
22.179841640,1072.0
22.201574520,1049.0
22.223307400,1183.0
22.245040280,1104.0
22.266773160,1142.0
22.288506040,1111.0
22.310238920,1040.0
22.331971800,1035.0
22.353704680,1089.0
22.375437560,1099.0
22.397170440,1114.0
22.418903320,1075.0
22.440636200,1130.0
22.462369080,1121.0
22.484101960,1067.0
22.505834840,1128.0
22.527567720,1093.0
22.549300600,1036.0
22.571033480,1075.0
22.592766360,1038.0
22.614499240,1041.0
22.636232120,1040.0
22.657965000,1078.0
22.679697880,1060.0
22.701430760,1071.0
22.723163640,1025.0
22.744896520,1082.0
22.766629400,1004.0
22.788362280,1006.0
22.810095160,1058.0
22.831828040,1104.0
22.853560920,1098.0
22.875293800,1056.0
22.897026680,1008.0
22.918759560,1046.0
22.940492440,1045.0
22.962225320,1045.0
22.983958200,991.0
23.005691080,1013.0
23.027423960,1057.0
23.049156840,1013.0
23.070889720,1044.0
23.092622600,988.0
23.114355480,1001.0
23.136088360,902.0
23.157821240,992.0
23.179554120,985.0
23.201287000,994.0
23.223019880,1011.0
23.244752760,972.0
23.266485640,1010.0
23.288218520,953.0
23.309951400,956.0
23.331684280,1035.0
23.353417160,1063.0
23.375150040,1014.0
23.396882920,999.0
23.418615800,935.0
23.440348680,996.0
23.462081560,940.0
23.483814440,989.0
23.505547320,943.0
23.527280200,1020.0
23.549013080,960.0
23.570745960,964.0
23.592478840,961.0
23.614211720,985.0
23.635944600,955.0
23.657677480,966.0
23.679410360,986.0
23.701143240,958.0
23.722876120,1094.0
23.744609000,1011.0
23.766341880,1003.0
23.788074760,1038.0
23.809807640,1004.0
23.831540520,958.0
23.853273400,973.0
23.875006280,999.0
23.896739160,955.0
23.918472040,1036.0
23.940204920,985.0
23.961937800,944.0
23.983670680,914.0
24.005403560,911.0
24.027136440,971.0
24.048869320,935.0
24.070602200,964.0
24.092335080,987.0
24.114067960,937.0
24.135800840,967.0
24.157533720,892.0
24.179266600,936.0
24.200999480,962.0
24.222732360,983.0
24.244465240,983.0
24.266198120,922.0
24.287931000,985.0
24.309663880,959.0
24.331396760,944.0
24.353129640,932.0
24.374862520,915.0
24.396595400,890.0
24.418328280,905.0
24.440061160,918.0
24.461794040,911.0
24.483526920,913.0
24.505259800,951.0
24.526992680,943.0
24.548725560,907.0
24.570458440,922.0
24.592191320,968.0
24.613924200,964.0
24.635657080,933.0
24.657389960,936.0
24.679122840,985.0
24.700855720,914.0
24.722588600,876.0
24.744321480,862.0
24.766054360,936.0
24.787787240,854.0
24.809520120,949.0
24.831253000,953.0
24.852985880,909.0
24.874718760,944.0
24.896451640,899.0
24.918184520,889.0
24.939917400,912.0
24.961650280,872.0
24.983383160,940.0
25.005116040,912.0
25.026848920,934.0
25.048581800,937.0
25.070314680,936.0
25.092047560,969.0
25.113780440,892.0
25.135513320,946.0
25.157246200,1064.0
25.178979080,1059.0
25.200711960,999.0
25.222444840,1015.0
25.244177720,1030.0
25.265910600,1123.0
25.287643480,1133.0
25.309376360,1251.0
25.331109240,1290.0
25.352842120,1385.0
25.374575000,1492.0
25.396307880,1540.0
25.418040760,1639.0
25.439773640,1656.0
25.461506520,1613.0
25.483239400,1545.0
25.504972280,1411.0
25.526705160,1323.0
25.548438040,1282.0
25.570170920,1231.0
25.591903800,1148.0
25.613636680,1147.0
25.635369560,1121.0
25.657102440,1125.0
25.678835320,1087.0
25.700568200,1032.0
25.722301080,989.0
25.744033960,996.0
25.765766840,910.0
25.787499720,904.0
25.809232600,925.0
25.830965480,905.0
25.852698360,890.0
25.874431240,898.0
25.896164120,859.0
25.917897000,862.0
25.939629880,846.0
25.961362760,827.0
25.983095640,847.0
26.004828520,855.0
26.026561400,848.0
26.048294280,912.0
26.070027160,862.0
26.091760040,852.0
26.113492920,916.0
26.135225800,858.0
26.156958680,834.0
26.178691560,846.0
26.200424440,848.0
26.222157320,844.0
26.243890200,791.0
26.265623080,838.0
26.287355960,841.0
26.309088840,860.0
26.330821720,781.0
26.352554600,783.0
26.374287480,805.0
26.396020360,812.0
26.417753240,831.0
26.439486120,753.0
26.461219000,896.0
26.482951880,795.0
26.504684760,813.0
26.526417640,864.0
26.548150520,869.0
26.569883400,812.0
26.591616280,769.0
26.613349160,818.0
26.635082040,842.0
26.656814920,804.0
26.678547800,823.0
26.700280680,823.0
26.722013560,777.0
26.743746440,831.0
26.765479320,766.0
26.787212200,805.0
26.808945080,822.0
26.830677960,801.0
26.852410840,786.0
26.874143720,790.0
26.895876600,835.0
26.917609480,795.0
26.939342360,736.0
26.961075240,823.0
26.982808120,810.0
27.004541000,760.0
27.026273880,842.0
27.048006760,838.0
27.069739640,834.0
27.091472520,878.0
27.113205400,821.0
27.134938280,894.0
27.156671160,1035.0
27.178404040,1146.0
27.200136920,1165.0
27.221869800,1392.0
27.243602680,1705.0
27.265335560,2098.0
27.287068440,2682.0
27.308801320,3481.0
27.330534200,4410.0
27.352267080,4650.0
27.373999960,3888.0
27.395732840,3214.0
27.417465720,2800.0
27.439198600,2161.0
27.460931480,1432.0
27.482664360,1140.0
27.504397240,924.0
27.526130120,894.0
27.547863000,886.0
27.569595880,791.0
27.591328760,849.0
27.613061640,862.0
27.634794520,803.0
27.656527400,815.0
27.678260280,837.0
27.699993160,756.0
27.721726040,740.0
27.743458920,802.0
27.765191800,803.0
27.786924680,751.0
27.808657560,780.0
27.830390440,815.0
27.852123320,750.0
27.873856200,758.0
27.895589080,752.0
27.917321960,766.0
27.939054840,764.0
27.960787720,774.0
27.982520600,728.0
28.004253480,733.0
28.025986360,766.0
28.047719240,781.0
28.069452120,783.0
28.091185000,748.0
28.112917880,766.0
28.134650760,758.0
28.156383640,775.0
28.178116520,717.0
28.199849400,711.0
28.221582280,738.0
28.243315160,721.0
28.265048040,725.0
28.286780920,742.0
28.308513800,763.0
28.330246680,781.0
28.351979560,771.0
28.373712440,749.0
28.395445320,803.0
28.417178200,877.0
28.438911080,921.0
28.460643960,906.0
28.482376840,943.0
28.504109720,1180.0
28.525842600,1496.0
28.547575480,1674.0
28.569308360,1642.0
28.591041240,1268.0
28.612774120,970.0
28.634507000,842.0
28.656239880,825.0
28.677972760,746.0
28.699705640,752.0
28.721438520,703.0
28.743171400,739.0
28.764904280,783.0
28.786637160,738.0
28.808370040,716.0
28.830102920,735.0
28.851835800,734.0
28.873568680,746.0
28.895301560,692.0
28.917034440,740.0
28.938767320,685.0
28.960500200,714.0
28.982233080,736.0
29.003965960,724.0
29.025698840,752.0
29.047431720,674.0
29.069164600,784.0
29.090897480,776.0
29.112630360,724.0
29.134363240,747.0
29.156096120,769.0
29.177829000,737.0
29.199561880,690.0
29.221294760,749.0
29.243027640,745.0
29.264760520,753.0
29.286493400,757.0
29.308226280,790.0
29.329959160,855.0
29.351692040,793.0
29.373424920,783.0
29.395157800,778.0
29.416890680,702.0
29.438623560,793.0
29.460356440,772.0
29.482089320,773.0
29.503822200,796.0
29.525555080,856.0
29.547287960,848.0
29.569020840,888.0
29.590753720,911.0
29.612486600,879.0
29.634219480,860.0
29.655952360,871.0
29.677685240,902.0
29.699418120,916.0
29.721151000,894.0
29.742883880,879.0
29.764616760,841.0
29.786349640,774.0
29.808082520,813.0
29.829815400,813.0
29.851548280,753.0
29.873281160,800.0
29.895014040,785.0
29.916746920,778.0
29.938479800,771.0
29.960212680,751.0
29.981945560,751.0
30.003678440,774.0
30.025411320,731.0
30.047144200,720.0
30.068877080,731.0
30.090609960,757.0
30.112342840,737.0
30.134075720,726.0
30.155808600,753.0
30.177541480,733.0
30.199274360,755.0
30.221007240,710.0
30.242740120,725.0
30.264473000,755.0
30.286205880,766.0
30.307938760,702.0
30.329671640,743.0
30.351404520,787.0
30.373137400,745.0
30.394870280,795.0
30.416603160,773.0
30.438336040,798.0
30.460068920,850.0
30.481801800,864.0
30.503534680,843.0
30.525267560,899.0
30.547000440,926.0
30.568733320,1054.0
30.590466200,1205.0
30.612199080,1194.0
30.633931960,1337.0
30.655664840,1294.0
30.677397720,1346.0
30.699130600,1386.0
30.720863480,1353.0
30.742596360,1351.0
30.764329240,1416.0
30.786062120,1334.0
30.807795000,1284.0
30.829527880,1361.0
30.851260760,1428.0
30.872993640,1309.0
30.894726520,1365.0
30.916459400,1361.0
30.938192280,1425.0
30.959925160,1492.0
30.981658040,1445.0
31.003390920,1462.0
31.025123800,1465.0
31.046856680,1525.0
31.068589560,1567.0
31.090322440,1603.0
31.112055320,1668.0
31.133788200,1785.0
31.155521080,1910.0
31.177253960,2040.0
31.198986840,2223.0
31.220719720,2446.0
31.242452600,2759.0
31.264185480,2957.0
31.285918360,3191.0
31.307651240,3343.0
31.329384120,3440.0
31.351117000,3583.0
31.372849880,3862.0
31.394582760,3994.0
31.416315640,4513.0
31.438048520,4940.0
31.459781400,5867.0
31.481514280,7276.0
31.503247160,9760.0
31.524980040,13043.0
31.546712920,18196.0
31.568445800,26277.0
31.590178680,40616.0
31.611911560,66838.0
31.633644440,110689.0
31.655377320,173268.0
31.677110200,232011.0
31.698843080,218487.0
31.720575960,154914.0
31.742308840,125958.0
31.764041720,121136.0
31.785774600,88540.0
31.807507480,44028.0
31.829240360,19322.0
31.850973240,10395.0
31.872706120,7652.0
31.894439000,6207.0
31.916171880,5462.0
31.937904760,4915.0
31.959637640,4446.0
31.981370520,4157.0
32.003103400,3796.0
32.024836280,3391.0
32.046569160,2977.0
32.068302040,2569.0
32.090034920,2339.0
32.111767800,2094.0
32.133500680,1846.0
32.155233560,1724.0
32.176966440,1554.0
32.198699320,1570.0
32.220432200,1464.0
32.242165080,1446.0
32.263897960,1352.0
32.285630840,1389.0
32.307363720,1415.0
32.329096600,1277.0
32.350829480,1320.0
32.372562360,1310.0
32.394295240,1287.0
32.416028120,1209.0
32.437761000,1242.0
32.459493880,1200.0
32.481226760,1194.0
32.502959640,1211.0
32.524692520,1163.0
32.546425400,1189.0
32.568158280,1172.0
32.589891160,1161.0
32.611624040,1117.0
32.633356920,1154.0
32.655089800,1114.0
32.676822680,1073.0
32.698555560,1136.0
32.720288440,1082.0
32.742021320,1040.0
32.763754200,1111.0
32.785487080,1100.0
32.807219960,1026.0
32.828952840,1053.0
32.850685720,1054.0
32.872418600,1070.0
32.894151480,984.0
32.915884360,1061.0
32.937617240,991.0
32.959350120,996.0
32.981083000,1014.0
33.002815880,1019.0
33.024548760,1003.0
33.046281640,989.0
33.068014520,997.0
33.089747400,999.0
33.111480280,942.0
33.133213160,948.0
33.154946040,958.0
33.176678920,986.0
33.198411800,1021.0
33.220144680,954.0
33.241877560,916.0
33.263610440,951.0
33.285343320,899.0
33.307076200,943.0
33.328809080,928.0
33.350541960,922.0
33.372274840,847.0
33.394007720,879.0
33.415740600,817.0
33.437473480,945.0
33.459206360,894.0
33.480939240,884.0
33.502672120,898.0
33.524405000,860.0
33.546137880,872.0
33.567870760,897.0
33.589603640,886.0
33.611336520,844.0
33.633069400,933.0
33.654802280,819.0
33.676535160,845.0
33.698268040,854.0
33.720000920,863.0
33.741733800,838.0
33.763466680,821.0
33.785199560,821.0
33.806932440,842.0
33.828665320,870.0
33.850398200,861.0
33.872131080,798.0
33.893863960,793.0
33.915596840,891.0
33.937329720,746.0
33.959062600,814.0
33.980795480,852.0
34.002528360,818.0
34.024261240,796.0
34.045994120,838.0
34.067727000,863.0
34.089459880,796.0
34.111192760,827.0
34.132925640,812.0
34.154658520,832.0
34.176391400,820.0
34.198124280,797.0
34.219857160,826.0
34.241590040,829.0
34.263322920,742.0
34.285055800,733.0
34.306788680,798.0
34.328521560,764.0
34.350254440,773.0
34.371987320,769.0
34.393720200,779.0
34.415453080,842.0
34.437185960,761.0
34.458918840,759.0
34.480651720,810.0
34.502384600,844.0
34.524117480,805.0
34.545850360,831.0
34.567583240,775.0
34.589316120,818.0
34.611049000,816.0
34.632781880,835.0
34.654514760,802.0
34.676247640,768.0
34.697980520,773.0
34.719713400,751.0
34.741446280,720.0
34.763179160,785.0
34.784912040,773.0
34.806644920,734.0
34.828377800,743.0
34.850110680,749.0
34.871843560,807.0
34.893576440,722.0
34.915309320,731.0
34.937042200,726.0
34.958775080,725.0
34.980507960,733.0
35.002240840,724.0
35.023973720,740.0
35.045706600,698.0
35.067439480,736.0
35.089172360,707.0
35.110905240,738.0
35.132638120,758.0
35.154371000,720.0
35.176103880,752.0
35.197836760,681.0
35.219569640,659.0
35.241302520,712.0
35.263035400,704.0
35.284768280,679.0
35.306501160,694.0
35.328234040,693.0
35.349966920,700.0
35.371699800,690.0
35.393432680,643.0
35.415165560,678.0
35.436898440,645.0
35.458631320,684.0
35.480364200,648.0
35.502097080,632.0
35.523829960,625.0
35.545562840,694.0
35.567295720,666.0
35.589028600,698.0
35.610761480,666.0
35.632494360,642.0
35.654227240,640.0
35.675960120,680.0
35.697693000,637.0
35.719425880,696.0
35.741158760,659.0
35.762891640,629.0
35.784624520,629.0
35.806357400,625.0
35.828090280,626.0
35.849823160,680.0
35.871556040,599.0
35.893288920,621.0
35.915021800,652.0
35.936754680,658.0
35.958487560,627.0
35.980220440,696.0
36.001953320,624.0
36.023686200,631.0
36.045419080,621.0
36.067151960,606.0
36.088884840,656.0
36.110617720,622.0
36.132350600,654.0
36.154083480,645.0
36.175816360,585.0
36.197549240,647.0
36.219282120,588.0
36.241015000,617.0
36.262747880,628.0
36.284480760,638.0
36.306213640,610.0
36.327946520,645.0
36.349679400,652.0
36.371412280,609.0
36.393145160,629.0
36.414878040,619.0
36.436610920,566.0
36.458343800,644.0
36.480076680,627.0
36.501809560,596.0
36.523542440,584.0
36.545275320,618.0
36.567008200,620.0
36.588741080,578.0
36.610473960,540.0
36.632206840,633.0
36.653939720,611.0
36.675672600,558.0
36.697405480,612.0
36.719138360,561.0
36.740871240,561.0
36.762604120,572.0
36.784337000,558.0
36.806069880,584.0
36.827802760,586.0
36.849535640,569.0
36.871268520,575.0
36.893001400,549.0
36.914734280,569.0
36.936467160,576.0
36.958200040,582.0
36.979932920,531.0
37.001665800,574.0
37.023398680,558.0
37.045131560,545.0
37.066864440,595.0
37.088597320,605.0
37.110330200,556.0
37.132063080,540.0
37.153795960,556.0
37.175528840,533.0
37.197261720,519.0
37.218994600,500.0
37.240727480,525.0
37.262460360,598.0
37.284193240,562.0
37.305926120,537.0
37.327659000,577.0
37.349391880,529.0
37.371124760,532.0
37.392857640,484.0
37.414590520,499.0
37.436323400,521.0
37.458056280,529.0
37.479789160,530.0
37.501522040,543.0
37.523254920,513.0
37.544987800,511.0
37.566720680,515.0
37.588453560,499.0
37.610186440,564.0
37.631919320,525.0
37.653652200,584.0
37.675385080,543.0
37.697117960,555.0
37.718850840,502.0
37.740583720,534.0
37.762316600,544.0
37.784049480,504.0
37.805782360,516.0
37.827515240,560.0
37.849248120,555.0
37.870981000,530.0
37.892713880,506.0
37.914446760,511.0
37.936179640,509.0
37.957912520,544.0
37.979645400,550.0
38.001378280,511.0
38.023111160,496.0
38.044844040,518.0
38.066576920,519.0
38.088309800,496.0
38.110042680,501.0
38.131775560,510.0
38.153508440,539.0
38.175241320,506.0
38.196974200,474.0
38.218707080,517.0
38.240439960,482.0
38.262172840,514.0
38.283905720,490.0
38.305638600,535.0
38.327371480,501.0
38.349104360,537.0
38.370837240,536.0
38.392570120,507.0
38.414303000,492.0
38.436035880,546.0
38.457768760,507.0
38.479501640,528.0
38.501234520,513.0
38.522967400,524.0
38.544700280,498.0
38.566433160,536.0
38.588166040,559.0
38.609898920,560.0
38.631631800,516.0
38.653364680,529.0
38.675097560,530.0
38.696830440,530.0
38.718563320,586.0
38.740296200,490.0
38.762029080,516.0
38.783761960,538.0
38.805494840,517.0
38.827227720,512.0
38.848960600,463.0
38.870693480,469.0
38.892426360,502.0
38.914159240,498.0
38.935892120,499.0
38.957625000,536.0
38.979357880,473.0
39.001090760,511.0
39.022823640,492.0
39.044556520,507.0
39.066289400,453.0
39.088022280,491.0
39.109755160,501.0
39.131488040,484.0
39.153220920,462.0
39.174953800,457.0
39.196686680,480.0
39.218419560,488.0
39.240152440,461.0
39.261885320,488.0
39.283618200,485.0
39.305351080,467.0
39.327083960,486.0
39.348816840,471.0
39.370549720,495.0
39.392282600,433.0
39.414015480,460.0
39.435748360,469.0
39.457481240,426.0
39.479214120,490.0
39.500947000,498.0
39.522679880,487.0
39.544412760,472.0
39.566145640,443.0
39.587878520,486.0
39.609611400,459.0
39.631344280,445.0
39.653077160,458.0
39.674810040,438.0
39.696542920,471.0
39.718275800,503.0
39.740008680,471.0
39.761741560,435.0
39.783474440,460.0
39.805207320,478.0
39.826940200,448.0
39.848673080,424.0
39.870405960,425.0
39.892138840,445.0
39.913871720,406.0
39.935604600,424.0
39.957337480,449.0
39.979070360,434.0
40.000803240,410.0
40.022536120,460.0
40.044269000,445.0
40.066001880,458.0
40.087734760,432.0
40.109467640,488.0
40.131200520,478.0
40.152933400,482.0
40.174666280,459.0
40.196399160,468.0
40.218132040,458.0
40.239864920,426.0
40.261597800,440.0
40.283330680,445.0
40.305063560,455.0
40.326796440,449.0
40.348529320,426.0
40.370262200,448.0
40.391995080,459.0
40.413727960,434.0
40.435460840,453.0
40.457193720,439.0
40.478926600,400.0
40.500659480,419.0
40.522392360,447.0
40.544125240,494.0
40.565858120,458.0
40.587591000,448.0
40.609323880,505.0
40.631056760,451.0
40.652789640,447.0
40.674522520,466.0
40.696255400,436.0
40.717988280,475.0
40.739721160,493.0
40.761454040,483.0
40.783186920,550.0
40.804919800,567.0
40.826652680,592.0
40.848385560,579.0
40.870118440,575.0
40.891851320,529.0
40.913584200,493.0
40.935317080,508.0
40.957049960,477.0
40.978782840,447.0
41.000515720,446.0
41.022248600,473.0
41.043981480,442.0
41.065714360,448.0
41.087447240,424.0
41.109180120,439.0
41.130913000,438.0
41.152645880,394.0
41.174378760,428.0
41.196111640,412.0
41.217844520,443.0
41.239577400,421.0
41.261310280,418.0
41.283043160,405.0
41.304776040,422.0
41.326508920,471.0
41.348241800,448.0
41.369974680,463.0
41.391707560,448.0
41.413440440,420.0
41.435173320,438.0
41.456906200,422.0
41.478639080,432.0
41.500371960,403.0
41.522104840,405.0
41.543837720,429.0
41.565570600,409.0
41.587303480,446.0
41.609036360,435.0
41.630769240,382.0
41.652502120,428.0
41.674235000,428.0
41.695967880,415.0
41.717700760,447.0
41.739433640,446.0
41.761166520,435.0
41.782899400,413.0
41.804632280,415.0
41.826365160,402.0
41.848098040,435.0
41.869830920,420.0
41.891563800,386.0
41.913296680,395.0
41.935029560,391.0
41.956762440,398.0
41.978495320,405.0
42.000228200,412.0
42.021961080,410.0
42.043693960,398.0
42.065426840,412.0
42.087159720,478.0
42.108892600,423.0
42.130625480,410.0
42.152358360,413.0
42.174091240,431.0
42.195824120,428.0
42.217557000,400.0
42.239289880,412.0
42.261022760,384.0
42.282755640,391.0
42.304488520,423.0
42.326221400,367.0
42.347954280,412.0
42.369687160,442.0
42.391420040,378.0
42.413152920,413.0
42.434885800,435.0
42.456618680,391.0
42.478351560,385.0
42.500084440,409.0
42.521817320,412.0
42.543550200,376.0
42.565283080,385.0
42.587015960,392.0
42.608748840,398.0
42.630481720,427.0
42.652214600,419.0
42.673947480,357.0
42.695680360,410.0
42.717413240,415.0
42.739146120,383.0
42.760879000,384.0
42.782611880,361.0
42.804344760,427.0
42.826077640,422.0
42.847810520,411.0
42.869543400,410.0
42.891276280,381.0
42.913009160,396.0
42.934742040,366.0
42.956474920,425.0
42.978207800,419.0
42.999940680,381.0
43.021673560,416.0
43.043406440,395.0
43.065139320,391.0
43.086872200,385.0
43.108605080,359.0
43.130337960,380.0
43.152070840,368.0
43.173803720,432.0
43.195536600,337.0
43.217269480,389.0
43.239002360,412.0
43.260735240,382.0
43.282468120,403.0
43.304201000,412.0
43.325933880,474.0
43.347666760,450.0
43.369399640,391.0
43.391132520,397.0
43.412865400,401.0
43.434598280,376.0
43.456331160,385.0
43.478064040,373.0
43.499796920,379.0
43.521529800,395.0
43.543262680,405.0
43.564995560,361.0
43.586728440,385.0
43.608461320,419.0
43.630194200,398.0
43.651927080,333.0
43.673659960,398.0
43.695392840,393.0
43.717125720,383.0
43.738858600,426.0
43.760591480,413.0
43.782324360,403.0
43.804057240,437.0
43.825790120,446.0
43.847523000,414.0
43.869255880,444.0
43.890988760,423.0
43.912721640,437.0
43.934454520,432.0
43.956187400,429.0
43.977920280,441.0
43.999653160,447.0
44.021386040,445.0
44.043118920,458.0
44.064851800,451.0
44.086584680,429.0
44.108317560,456.0
44.130050440,397.0
44.151783320,475.0
44.173516200,433.0
44.195249080,488.0
44.216981960,480.0
44.238714840,432.0
44.260447720,470.0
44.282180600,494.0
44.303913480,480.0
44.325646360,439.0
44.347379240,460.0
44.369112120,467.0
44.390845000,459.0
44.412577880,480.0
44.434310760,450.0
44.456043640,445.0
44.477776520,452.0
44.499509400,471.0
44.521242280,484.0
44.542975160,474.0
44.564708040,459.0
44.586440920,456.0
44.608173800,453.0
44.629906680,467.0
44.651639560,499.0
44.673372440,483.0
44.695105320,459.0
44.716838200,470.0
44.738571080,508.0
44.760303960,522.0
44.782036840,463.0
44.803769720,511.0
44.825502600,535.0
44.847235480,507.0
44.868968360,514.0
44.890701240,550.0
44.912434120,570.0
44.934167000,583.0
44.955899880,600.0
44.977632760,642.0
44.999365640,716.0
45.021098520,700.0
45.042831400,726.0
45.064564280,832.0
45.086297160,832.0
45.108030040,943.0
45.129762920,973.0
45.151495800,1055.0
45.173228680,1150.0
45.194961560,1341.0
45.216694440,1503.0
45.238427320,1614.0
45.260160200,2016.0
45.281893080,2767.0
45.303625960,3952.0
45.325358840,6075.0
45.347091720,9850.0
45.368824600,16020.0
45.390557480,23930.0
45.412290360,30788.0
45.434023240,30372.0
45.455756120,21078.0
45.477489000,14335.0
45.499221880,13511.0
45.520954760,15465.0
45.542687640,16265.0
45.564420520,12793.0
45.586153400,7209.0
45.607886280,3870.0
45.629619160,2422.0
45.651352040,1799.0
45.673084920,1423.0
45.694817800,1217.0
45.716550680,1122.0
45.738283560,1068.0
45.760016440,926.0
45.781749320,815.0
45.803482200,775.0
45.825215080,734.0
45.846947960,666.0
45.868680840,607.0
45.890413720,641.0
45.912146600,567.0
45.933879480,582.0
45.955612360,524.0
45.977345240,488.0
45.999078120,486.0
46.020811000,519.0
46.042543880,509.0
46.064276760,444.0
46.086009640,448.0
46.107742520,487.0
46.129475400,475.0
46.151208280,449.0
46.172941160,422.0
46.194674040,417.0
46.216406920,416.0
46.238139800,446.0
46.259872680,454.0
46.281605560,433.0
46.303338440,446.0
46.325071320,433.0
46.346804200,458.0
46.368537080,428.0
46.390269960,416.0
46.412002840,412.0
46.433735720,420.0
46.455468600,397.0
46.477201480,448.0
46.498934360,415.0
46.520667240,415.0
46.542400120,426.0
46.564133000,393.0
46.585865880,382.0
46.607598760,408.0
46.629331640,411.0
46.651064520,410.0
46.672797400,412.0
46.694530280,411.0
46.716263160,417.0
46.737996040,402.0
46.759728920,410.0
46.781461800,393.0
46.803194680,426.0
46.824927560,406.0
46.846660440,397.0
46.868393320,365.0
46.890126200,373.0
46.911859080,384.0
46.933591960,448.0
46.955324840,394.0
46.977057720,384.0
46.998790600,405.0
47.020523480,404.0
47.042256360,358.0
47.063989240,407.0
47.085722120,368.0
47.107455000,383.0
47.129187880,375.0
47.150920760,381.0
47.172653640,399.0
47.194386520,376.0
47.216119400,370.0
47.237852280,381.0
47.259585160,394.0
47.281318040,363.0
47.303050920,357.0
47.324783800,378.0
47.346516680,394.0
47.368249560,358.0
47.389982440,373.0
47.411715320,365.0
47.433448200,379.0
47.455181080,391.0
47.476913960,381.0
47.498646840,350.0
47.520379720,395.0
47.542112600,359.0
47.563845480,384.0
47.585578360,389.0
47.607311240,366.0
47.629044120,335.0
47.650777000,364.0
47.672509880,340.0
47.694242760,371.0
47.715975640,328.0
47.737708520,385.0
47.759441400,376.0
47.781174280,342.0
47.802907160,367.0
47.824640040,360.0
47.846372920,317.0
47.868105800,358.0
47.889838680,358.0
47.911571560,373.0
47.933304440,349.0
47.955037320,322.0
47.976770200,357.0
47.998503080,384.0
48.020235960,359.0
48.041968840,358.0
48.063701720,350.0
48.085434600,358.0
48.107167480,335.0
48.128900360,346.0
48.150633240,340.0
48.172366120,338.0
48.194099000,339.0
48.215831880,349.0
48.237564760,306.0
48.259297640,337.0
48.281030520,356.0
48.302763400,357.0
48.324496280,332.0
48.346229160,355.0
48.367962040,352.0
48.389694920,317.0
48.411427800,333.0
48.433160680,331.0
48.454893560,364.0
48.476626440,373.0
48.498359320,326.0
48.520092200,345.0
48.541825080,326.0
48.563557960,379.0
48.585290840,374.0
48.607023720,382.0
48.628756600,371.0
48.650489480,406.0
48.672222360,372.0
48.693955240,400.0
48.715688120,365.0
48.737421000,377.0
48.759153880,357.0
48.780886760,358.0
48.802619640,382.0
48.824352520,385.0
48.846085400,367.0
48.867818280,342.0
48.889551160,380.0
48.911284040,350.0
48.933016920,329.0
48.954749800,350.0
48.976482680,333.0
48.998215560,367.0
49.019948440,355.0
49.041681320,318.0
49.063414200,321.0
49.085147080,344.0
49.106879960,375.0
49.128612840,365.0
49.150345720,339.0
49.172078600,361.0
49.193811480,316.0
49.215544360,329.0
49.237277240,382.0
49.259010120,377.0
49.280743000,356.0
49.302475880,386.0
49.324208760,367.0
49.345941640,342.0
49.367674520,346.0
49.389407400,325.0
49.411140280,351.0
49.432873160,355.0
49.454606040,368.0
49.476338920,354.0
49.498071800,292.0
49.519804680,335.0
49.541537560,363.0
49.563270440,367.0
49.585003320,339.0
49.606736200,292.0
49.628469080,357.0
49.650201960,306.0
49.671934840,331.0
49.693667720,322.0
49.715400600,280.0
49.737133480,318.0
49.758866360,319.0
49.780599240,280.0
49.802332120,292.0
49.824065000,300.0
49.845797880,286.0
49.867530760,302.0
49.889263640,296.0
49.910996520,318.0
49.932729400,339.0
49.954462280,342.0
49.976195160,303.0
49.997928040,289.0
50.019660920,300.0
50.041393800,300.0
50.063126680,328.0
50.084859560,321.0
50.106592440,313.0
50.128325320,324.0
50.150058200,291.0
50.171791080,325.0
50.193523960,323.0
50.215256840,339.0
50.236989720,332.0
50.258722600,292.0
50.280455480,329.0
50.302188360,326.0
50.323921240,272.0
50.345654120,312.0
50.367387000,298.0
50.389119880,324.0
50.410852760,317.0
50.432585640,321.0
50.454318520,286.0
50.476051400,335.0
50.497784280,345.0
50.519517160,314.0
50.541250040,331.0
50.562982920,350.0
50.584715800,344.0
50.606448680,357.0
50.628181560,350.0
50.649914440,310.0
50.671647320,311.0
50.693380200,324.0
50.715113080,316.0
50.736845960,282.0
50.758578840,334.0
50.780311720,308.0
50.802044600,302.0
50.823777480,286.0
50.845510360,292.0
50.867243240,300.0
50.888976120,260.0
50.910709000,298.0
50.932441880,320.0
50.954174760,270.0
50.975907640,330.0
50.997640520,339.0
51.019373400,285.0
51.041106280,318.0
51.062839160,314.0
51.084572040,294.0
51.106304920,361.0
51.128037800,299.0
51.149770680,283.0
51.171503560,269.0
51.193236440,289.0
51.214969320,309.0
51.236702200,319.0
51.258435080,300.0
51.280167960,262.0
51.301900840,279.0
51.323633720,310.0
51.345366600,289.0
51.367099480,324.0
51.388832360,319.0
51.410565240,281.0
51.432298120,286.0
51.454031000,301.0
51.475763880,269.0
51.497496760,321.0
51.519229640,247.0
51.540962520,302.0
51.562695400,273.0
51.584428280,285.0
51.606161160,272.0
51.627894040,264.0
51.649626920,285.0
51.671359800,294.0
51.693092680,265.0
51.714825560,326.0
51.736558440,286.0
51.758291320,264.0
51.780024200,249.0
51.801757080,288.0
51.823489960,281.0
51.845222840,304.0
51.866955720,284.0
51.888688600,281.0
51.910421480,266.0
51.932154360,307.0
51.953887240,317.0
51.975620120,279.0
51.997353000,300.0
52.019085880,311.0
52.040818760,262.0
52.062551640,293.0
52.084284520,300.0
52.106017400,333.0
52.127750280,301.0
52.149483160,285.0
52.171216040,298.0
52.192948920,325.0
52.214681800,319.0
52.236414680,349.0
52.258147560,324.0
52.279880440,351.0
52.301613320,331.0
52.323346200,314.0
52.345079080,344.0
52.366811960,307.0
52.388544840,345.0
52.410277720,297.0
52.432010600,308.0
52.453743480,311.0
52.475476360,280.0
52.497209240,264.0
52.518942120,292.0
52.540675000,289.0
52.562407880,320.0
52.584140760,287.0
52.605873640,280.0
52.627606520,287.0
52.649339400,305.0
52.671072280,281.0
52.692805160,275.0
52.714538040,287.0
52.736270920,301.0
52.758003800,249.0
52.779736680,312.0
52.801469560,286.0
52.823202440,276.0
52.844935320,315.0
52.866668200,277.0
52.888401080,300.0
52.910133960,306.0
52.931866840,275.0
52.953599720,314.0
52.975332600,246.0
52.997065480,270.0
53.018798360,267.0
53.040531240,267.0
53.062264120,277.0
53.083997000,265.0
53.105729880,285.0
53.127462760,309.0
53.149195640,292.0
53.170928520,296.0
53.192661400,307.0
53.214394280,274.0
53.236127160,231.0
53.257860040,286.0
53.279592920,298.0
53.301325800,305.0
53.323058680,248.0
53.344791560,288.0
53.366524440,300.0
53.388257320,298.0
53.409990200,309.0
53.431723080,274.0
53.453455960,274.0
53.475188840,274.0
53.496921720,275.0
53.518654600,270.0
53.540387480,301.0
53.562120360,310.0
53.583853240,314.0
53.605586120,321.0
53.627319000,302.0
53.649051880,353.0
53.670784760,322.0
53.692517640,295.0
53.714250520,331.0
53.735983400,415.0
53.757716280,512.0
53.779449160,722.0
53.801182040,931.0
53.822914920,1157.0
53.844647800,1125.0
53.866380680,952.0
53.888113560,668.0
53.909846440,599.0
53.931579320,661.0
53.953312200,723.0
53.975045080,772.0
53.996777960,687.0
54.018510840,544.0
54.040243720,414.0
54.061976600,382.0
54.083709480,340.0
54.105442360,312.0
54.127175240,344.0
54.148908120,270.0
54.170641000,313.0
54.192373880,299.0
54.214106760,318.0
54.235839640,316.0
54.257572520,248.0
54.279305400,283.0
54.301038280,288.0
54.322771160,295.0
54.344504040,263.0
54.366236920,285.0
54.387969800,275.0
54.409702680,261.0
54.431435560,277.0
54.453168440,269.0
54.474901320,251.0
54.496634200,278.0
54.518367080,250.0
54.540099960,289.0
54.561832840,259.0
54.583565720,269.0
54.605298600,292.0
54.627031480,280.0
54.648764360,279.0
54.670497240,295.0
54.692230120,293.0
54.713963000,270.0
54.735695880,279.0
54.757428760,291.0
54.779161640,297.0
54.800894520,280.0
54.822627400,283.0
54.844360280,285.0
54.866093160,307.0
54.887826040,281.0
54.909558920,267.0
54.931291800,283.0
54.953024680,306.0
54.974757560,293.0
54.996490440,271.0
55.018223320,332.0
55.039956200,291.0
55.061689080,280.0
55.083421960,272.0
55.105154840,289.0
55.126887720,289.0
55.148620600,298.0
55.170353480,290.0
55.192086360,307.0
55.213819240,308.0
55.235552120,297.0
55.257285000,290.0
55.279017880,297.0
55.300750760,279.0
55.322483640,306.0
55.344216520,237.0
55.365949400,264.0
55.387682280,276.0
55.409415160,314.0
55.431148040,305.0
55.452880920,277.0
55.474613800,314.0
55.496346680,307.0
55.518079560,275.0
55.539812440,288.0
55.561545320,303.0
55.583278200,292.0
55.605011080,276.0
55.626743960,289.0
55.648476840,276.0
55.670209720,336.0
55.691942600,318.0
55.713675480,308.0
55.735408360,299.0
55.757141240,305.0
55.778874120,293.0
55.800607000,286.0
55.822339880,319.0
55.844072760,333.0
55.865805640,315.0
55.887538520,327.0
55.909271400,346.0
55.931004280,318.0
55.952737160,327.0
55.974470040,317.0
55.996202920,351.0
56.017935800,359.0
56.039668680,356.0
56.061401560,387.0
56.083134440,340.0
56.104867320,408.0
56.126600200,407.0
56.148333080,393.0
56.170065960,386.0
56.191798840,477.0
56.213531720,489.0
56.235264600,513.0
56.256997480,572.0
56.278730360,719.0
56.300463240,833.0
56.322196120,1113.0
56.343929000,1658.0
56.365661880,2616.0
56.387394760,3938.0
56.409127640,5643.0
56.430860520,7444.0
56.452593400,7635.0
56.474326280,5651.0
56.496059160,3689.0
56.517792040,2828.0
56.539524920,2851.0
56.561257800,3521.0
56.582990680,4032.0
56.604723560,3978.0
56.626456440,3003.0
56.648189320,1899.0
56.669922200,1183.0
56.691655080,847.0
56.713387960,638.0
56.735120840,543.0
56.756853720,488.0
56.778586600,441.0
56.800319480,425.0
56.822052360,410.0
56.843785240,381.0
56.865518120,366.0
56.887251000,369.0
56.908983880,313.0
56.930716760,300.0
56.952449640,281.0
56.974182520,296.0
56.995915400,279.0
57.017648280,311.0
57.039381160,337.0
57.061114040,278.0
57.082846920,275.0
57.104579800,264.0
57.126312680,263.0
57.148045560,284.0
57.169778440,277.0
57.191511320,260.0
57.213244200,249.0
57.234977080,259.0
57.256709960,244.0
57.278442840,286.0
57.300175720,277.0
57.321908600,265.0
57.343641480,250.0
57.365374360,263.0
57.387107240,232.0
57.408840120,291.0
57.430573000,265.0
57.452305880,258.0
57.474038760,257.0
57.495771640,256.0
57.517504520,281.0
57.539237400,301.0
57.560970280,266.0
57.582703160,227.0
57.604436040,273.0
57.626168920,275.0
57.647901800,256.0
57.669634680,245.0
57.691367560,267.0
57.713100440,238.0
57.734833320,220.0
57.756566200,260.0
57.778299080,265.0
57.800031960,262.0
57.821764840,244.0
57.843497720,229.0
57.865230600,233.0
57.886963480,251.0
57.908696360,270.0
57.930429240,231.0
57.952162120,233.0
57.973895000,244.0
57.995627880,259.0
58.017360760,223.0
58.039093640,233.0
58.060826520,262.0
58.082559400,260.0
58.104292280,243.0
58.126025160,244.0
58.147758040,256.0
58.169490920,227.0
58.191223800,223.0
58.212956680,246.0
58.234689560,219.0
58.256422440,241.0
58.278155320,262.0
58.299888200,225.0
58.321621080,229.0
58.343353960,245.0
58.365086840,217.0
58.386819720,222.0
58.408552600,215.0
58.430285480,226.0
58.452018360,228.0
58.473751240,250.0
58.495484120,244.0
58.517217000,278.0
58.538949880,277.0
58.560682760,232.0
58.582415640,209.0
58.604148520,219.0
58.625881400,217.0
58.647614280,266.0
58.669347160,234.0
58.691080040,239.0
58.712812920,248.0
58.734545800,228.0
58.756278680,220.0
58.778011560,227.0
58.799744440,270.0
58.821477320,247.0
58.843210200,247.0
58.864943080,282.0
58.886675960,227.0
58.908408840,238.0
58.930141720,257.0
58.951874600,269.0
58.973607480,231.0
58.995340360,231.0
59.017073240,257.0
59.038806120,249.0
59.060539000,266.0
59.082271880,257.0
59.104004760,280.0
59.125737640,308.0
59.147470520,326.0
59.169203400,272.0
59.190936280,288.0
59.212669160,266.0
59.234402040,230.0
59.256134920,211.0
59.277867800,220.0
59.299600680,246.0
59.321333560,231.0
59.343066440,233.0
59.364799320,219.0
59.386532200,229.0
59.408265080,275.0
59.429997960,204.0
59.451730840,217.0
59.473463720,257.0
59.495196600,204.0
59.516929480,214.0
59.538662360,226.0
59.560395240,266.0
59.582128120,232.0
59.603861000,247.0
59.625593880,210.0
59.647326760,240.0
59.669059640,187.0
59.690792520,225.0
59.712525400,237.0
59.734258280,250.0
59.755991160,202.0
59.777724040,214.0
59.799456920,207.0
59.821189800,206.0
59.842922680,208.0
59.864655560,205.0
59.886388440,236.0
59.908121320,223.0
59.929854200,199.0
59.951587080,242.0
59.973319960,209.0
59.995052840,212.0
60.016785720,197.0
60.038518600,198.0
60.060251480,225.0
60.081984360,222.0
60.103717240,248.0
60.125450120,244.0
60.147183000,205.0
60.168915880,239.0
60.190648760,240.0
60.212381640,248.0
60.234114520,209.0
60.255847400,215.0
60.277580280,208.0
60.299313160,196.0
60.321046040,213.0
60.342778920,214.0
60.364511800,224.0
60.386244680,195.0
60.407977560,227.0
60.429710440,219.0
60.451443320,207.0
60.473176200,205.0
60.494909080,218.0
60.516641960,247.0
60.538374840,225.0
60.560107720,227.0
60.581840600,218.0
60.603573480,238.0
60.625306360,224.0
60.647039240,242.0
60.668772120,257.0
60.690505000,221.0
60.712237880,202.0
60.733970760,212.0
60.755703640,224.0
60.777436520,234.0
60.799169400,213.0
60.820902280,228.0
60.842635160,218.0
60.864368040,258.0
60.886100920,211.0
60.907833800,230.0
60.929566680,218.0
60.951299560,237.0
60.973032440,221.0
60.994765320,233.0
61.016498200,173.0
61.038231080,226.0
61.059963960,210.0
61.081696840,221.0
61.103429720,220.0
61.125162600,224.0
61.146895480,226.0
61.168628360,226.0
61.190361240,235.0
61.212094120,230.0
61.233827000,241.0
61.255559880,232.0
61.277292760,233.0
61.299025640,224.0
61.320758520,220.0
61.342491400,259.0
61.364224280,214.0
61.385957160,226.0
61.407690040,196.0
61.429422920,220.0
61.451155800,190.0
61.472888680,196.0
61.494621560,213.0
61.516354440,211.0
61.538087320,221.0
61.559820200,223.0
61.581553080,217.0
61.603285960,201.0
61.625018840,217.0
61.646751720,193.0
61.668484600,215.0
61.690217480,229.0
61.711950360,211.0
61.733683240,240.0
61.755416120,204.0
61.777149000,208.0
61.798881880,210.0
61.820614760,209.0
61.842347640,220.0
61.864080520,227.0
61.885813400,192.0
61.907546280,215.0
61.929279160,209.0
61.951012040,223.0
61.972744920,217.0
61.994477800,212.0
62.016210680,203.0
62.037943560,217.0
62.059676440,227.0
62.081409320,228.0
62.103142200,235.0
62.124875080,233.0
62.146607960,231.0
62.168340840,230.0
62.190073720,227.0
62.211806600,205.0
62.233539480,231.0
62.255272360,206.0
62.277005240,229.0
62.298738120,230.0
62.320471000,213.0
62.342203880,217.0
62.363936760,216.0
62.385669640,232.0
62.407402520,234.0
62.429135400,218.0
62.450868280,216.0
62.472601160,212.0
62.494334040,196.0
62.516066920,248.0
62.537799800,199.0
62.559532680,219.0
62.581265560,220.0
62.602998440,205.0
62.624731320,211.0
62.646464200,204.0
62.668197080,226.0
62.689929960,193.0
62.711662840,234.0
62.733395720,229.0
62.755128600,264.0
62.776861480,264.0
62.798594360,218.0
62.820327240,194.0
62.842060120,234.0
62.863793000,198.0
62.885525880,216.0
62.907258760,243.0
62.928991640,215.0
62.950724520,183.0
62.972457400,218.0
62.994190280,223.0
63.015923160,240.0
63.037656040,211.0
63.059388920,212.0
63.081121800,207.0
63.102854680,216.0
63.124587560,213.0
63.146320440,231.0
63.168053320,219.0
63.189786200,241.0
63.211519080,227.0
63.233251960,212.0
63.254984840,225.0
63.276717720,194.0
63.298450600,202.0
63.320183480,207.0
63.341916360,216.0
63.363649240,195.0
63.385382120,205.0
63.407115000,199.0
63.428847880,225.0
63.450580760,179.0
63.472313640,236.0
63.494046520,234.0
63.515779400,216.0
63.537512280,206.0
63.559245160,243.0
63.580978040,224.0
63.602710920,216.0
63.624443800,211.0
63.646176680,222.0
63.667909560,208.0
63.689642440,232.0
63.711375320,232.0
63.733108200,213.0
63.754841080,227.0
63.776573960,250.0
63.798306840,201.0
63.820039720,240.0
63.841772600,243.0
63.863505480,220.0
63.885238360,234.0
63.906971240,215.0
63.928704120,248.0
63.950437000,227.0
63.972169880,221.0
63.993902760,225.0
64.015635640,219.0
64.037368520,243.0
64.059101400,236.0
64.080834280,236.0
64.102567160,193.0
64.124300040,243.0
64.146032920,276.0
64.167765800,260.0
64.189498680,267.0
64.211231560,211.0
64.232964440,266.0
64.254697320,248.0
64.276430200,246.0
64.298163080,225.0
64.319895960,232.0
64.341628840,256.0
64.363361720,245.0
64.385094600,227.0
64.406827480,244.0
64.428560360,218.0
64.450293240,273.0
64.472026120,235.0
64.493759000,229.0
64.515491880,230.0
64.537224760,240.0
64.558957640,227.0
64.580690520,233.0
64.602423400,230.0
64.624156280,264.0
64.645889160,269.0
64.667622040,269.0
64.689354920,228.0
64.711087800,262.0
64.732820680,235.0
64.754553560,233.0
64.776286440,239.0
64.798019320,240.0
64.819752200,244.0
64.841485080,251.0
64.863217960,261.0
64.884950840,223.0
64.906683720,237.0
64.928416600,243.0
64.950149480,245.0
64.971882360,264.0
64.993615240,261.0
65.015348120,256.0
65.037081000,259.0
65.058813880,258.0
65.080546760,234.0
65.102279640,271.0
65.124012520,247.0
65.145745400,246.0
65.167478280,283.0
65.189211160,235.0
65.210944040,228.0
65.232676920,267.0
65.254409800,285.0
65.276142680,262.0
65.297875560,246.0
65.319608440,263.0
65.341341320,214.0
65.363074200,280.0
65.384807080,269.0
65.406539960,268.0
65.428272840,278.0
65.450005720,256.0
65.471738600,277.0
65.493471480,295.0
65.515204360,301.0
65.536937240,286.0
65.558670120,289.0
65.580403000,289.0
65.602135880,279.0
65.623868760,281.0
65.645601640,286.0
65.667334520,316.0
65.689067400,318.0
65.710800280,365.0
65.732533160,358.0
65.754266040,344.0
65.775998920,390.0
65.797731800,435.0
65.819464680,456.0
65.841197560,460.0
65.862930440,466.0
65.884663320,500.0
65.906396200,515.0
65.928129080,563.0
65.949861960,541.0
65.971594840,551.0
65.993327720,538.0
66.015060600,670.0
66.036793480,700.0
66.058526360,941.0
66.080259240,1237.0
66.101992120,1808.0
66.123725000,2887.0
66.145457880,4706.0
66.167190760,7649.0
66.188923640,11593.0
66.210656520,12604.0
66.232389400,9124.0
66.254122280,5294.0
66.275855160,3147.0
66.297588040,2524.0
66.319320920,2689.0
66.341053800,3575.0
66.362786680,5134.0
66.384519560,6375.0
66.406252440,5825.0
66.427985320,4068.0
66.449718200,2297.0
66.471451080,1404.0
66.493183960,965.0
66.514916840,777.0
66.536649720,670.0
66.558382600,558.0
66.580115480,505.0
66.601848360,480.0
66.623581240,479.0
66.645314120,409.0
66.667047000,368.0
66.688779880,392.0
66.710512760,381.0
66.732245640,346.0
66.753978520,323.0
66.775711400,317.0
66.797444280,315.0
66.819177160,321.0
66.840910040,325.0
66.862642920,331.0
66.884375800,227.0
66.906108680,323.0
66.927841560,302.0
66.949574440,322.0
66.971307320,319.0
66.993040200,334.0
67.014773080,273.0
67.036505960,289.0
67.058238840,285.0
67.079971720,258.0
67.101704600,283.0
67.123437480,276.0
67.145170360,265.0
67.166903240,267.0
67.188636120,278.0
67.210369000,261.0
67.232101880,246.0
67.253834760,281.0
67.275567640,274.0
67.297300520,228.0
67.319033400,248.0
67.340766280,226.0
67.362499160,282.0
67.384232040,239.0
67.405964920,266.0
67.427697800,250.0
67.449430680,229.0
67.471163560,236.0
67.492896440,238.0
67.514629320,241.0
67.536362200,220.0
67.558095080,239.0
67.579827960,245.0
67.601560840,263.0
67.623293720,244.0
67.645026600,238.0
67.666759480,241.0
67.688492360,191.0
67.710225240,233.0
67.731958120,240.0
67.753691000,216.0
67.775423880,244.0
67.797156760,239.0
67.818889640,229.0
67.840622520,263.0
67.862355400,229.0
67.884088280,248.0
67.905821160,257.0
67.927554040,238.0
67.949286920,226.0
67.971019800,245.0
67.992752680,249.0
68.014485560,211.0
68.036218440,207.0
68.057951320,238.0
68.079684200,232.0
68.101417080,236.0
68.123149960,198.0
68.144882840,240.0
68.166615720,214.0
68.188348600,201.0
68.210081480,251.0
68.231814360,223.0
68.253547240,224.0
68.275280120,210.0
68.297013000,208.0
68.318745880,236.0
68.340478760,235.0
68.362211640,226.0
68.383944520,217.0
68.405677400,236.0
68.427410280,257.0
68.449143160,244.0
68.470876040,195.0
68.492608920,205.0
68.514341800,209.0
68.536074680,228.0
68.557807560,236.0
68.579540440,225.0
68.601273320,214.0
68.623006200,215.0
68.644739080,243.0
68.666471960,209.0
68.688204840,232.0
68.709937720,231.0
68.731670600,230.0
68.753403480,226.0
68.775136360,228.0
68.796869240,204.0
68.818602120,193.0
68.840335000,206.0
68.862067880,225.0
68.883800760,203.0
68.905533640,209.0
68.927266520,220.0
68.948999400,207.0
68.970732280,203.0
68.992465160,239.0
69.014198040,222.0
69.035930920,209.0
69.057663800,226.0
69.079396680,224.0
69.101129560,216.0
69.122862440,227.0
69.144595320,203.0
69.166328200,198.0
69.188061080,225.0
69.209793960,209.0
69.231526840,229.0
69.253259720,221.0
69.274992600,206.0
69.296725480,221.0
69.318458360,203.0
69.340191240,216.0
69.361924120,210.0
69.383657000,209.0
69.405389880,220.0
69.427122760,226.0
69.448855640,218.0
69.470588520,225.0
69.492321400,209.0
69.514054280,222.0
69.535787160,225.0
69.557520040,201.0
69.579252920,206.0
69.600985800,194.0
69.622718680,212.0
69.644451560,259.0
69.666184440,249.0
69.687917320,238.0
69.709650200,235.0
69.731383080,216.0
69.753115960,198.0
69.774848840,212.0
69.796581720,219.0
69.818314600,211.0
69.840047480,218.0
69.861780360,214.0
69.883513240,164.0
69.905246120,207.0
69.926979000,218.0
69.948711880,196.0
69.970444760,210.0
69.992177640,193.0
70.013910520,199.0
70.035643400,214.0
70.057376280,166.0
70.079109160,198.0
70.100842040,196.0
70.122574920,230.0
70.144307800,239.0
70.166040680,206.0
70.187773560,212.0
70.209506440,214.0
70.231239320,215.0
70.252972200,190.0
70.274705080,196.0
70.296437960,207.0
70.318170840,206.0
70.339903720,237.0
70.361636600,187.0
70.383369480,213.0
70.405102360,187.0
70.426835240,221.0
70.448568120,204.0
70.470301000,228.0
70.492033880,212.0
70.513766760,188.0
70.535499640,214.0
70.557232520,187.0
70.578965400,181.0
70.600698280,201.0
70.622431160,196.0
70.644164040,209.0
70.665896920,215.0
70.687629800,199.0
70.709362680,196.0
70.731095560,208.0
70.752828440,208.0
70.774561320,235.0
70.796294200,190.0
70.818027080,235.0
70.839759960,209.0
70.861492840,191.0
70.883225720,198.0
70.904958600,215.0
70.926691480,222.0
70.948424360,201.0
70.970157240,229.0
70.991890120,226.0
71.013623000,214.0
71.035355880,212.0
71.057088760,204.0
71.078821640,231.0
71.100554520,219.0
71.122287400,217.0
71.144020280,191.0
71.165753160,221.0
71.187486040,232.0
71.209218920,227.0
71.230951800,237.0
71.252684680,227.0
71.274417560,221.0
71.296150440,228.0
71.317883320,203.0
71.339616200,204.0
71.361349080,223.0
71.383081960,194.0
71.404814840,209.0
71.426547720,217.0
71.448280600,206.0
71.470013480,226.0
71.491746360,245.0
71.513479240,193.0
71.535212120,219.0
71.556945000,247.0
71.578677880,222.0
71.600410760,215.0
71.622143640,202.0
71.643876520,229.0
71.665609400,200.0
71.687342280,235.0
71.709075160,223.0
71.730808040,222.0
71.752540920,211.0
71.774273800,198.0
71.796006680,240.0
71.817739560,203.0
71.839472440,257.0
71.861205320,204.0
71.882938200,205.0
71.904671080,176.0
71.926403960,250.0
71.948136840,211.0
71.969869720,235.0
71.991602600,224.0
72.013335480,219.0
72.035068360,222.0
72.056801240,194.0
72.078534120,223.0
72.100267000,221.0
72.121999880,191.0
72.143732760,208.0
72.165465640,216.0
72.187198520,212.0
72.208931400,231.0
72.230664280,212.0
72.252397160,181.0
72.274130040,243.0
72.295862920,232.0
72.317595800,217.0
72.339328680,198.0
72.361061560,245.0
72.382794440,228.0
72.404527320,243.0
72.426260200,198.0
72.447993080,225.0
72.469725960,249.0
72.491458840,236.0
72.513191720,223.0
72.534924600,233.0
72.556657480,227.0
72.578390360,209.0
72.600123240,209.0
72.621856120,219.0
72.643589000,239.0
72.665321880,216.0
72.687054760,256.0
72.708787640,226.0
72.730520520,239.0
72.752253400,215.0
72.773986280,218.0
72.795719160,259.0
72.817452040,237.0
72.839184920,239.0
72.860917800,260.0
72.882650680,297.0
72.904383560,310.0
72.926116440,288.0
72.947849320,314.0
72.969582200,386.0
72.991315080,450.0
73.013047960,547.0
73.034780840,609.0
73.056513720,526.0
73.078246600,464.0
73.099979480,407.0
73.121712360,329.0
73.143445240,302.0
73.165178120,313.0
73.186911000,325.0
73.208643880,353.0
73.230376760,374.0
73.252109640,421.0
73.273842520,373.0
73.295575400,332.0
73.317308280,285.0
73.339041160,265.0
73.360774040,262.0
73.382506920,231.0
73.404239800,249.0
73.425972680,213.0
73.447705560,225.0
73.469438440,235.0
73.491171320,219.0
73.512904200,238.0
73.534637080,217.0
73.556369960,229.0
73.578102840,201.0
73.599835720,224.0
73.621568600,213.0
73.643301480,223.0
73.665034360,224.0
73.686767240,226.0
73.708500120,243.0
73.730233000,226.0
73.751965880,199.0
73.773698760,207.0
73.795431640,240.0
73.817164520,237.0
73.838897400,243.0
73.860630280,208.0
73.882363160,226.0
73.904096040,234.0
73.925828920,204.0
73.947561800,248.0
73.969294680,221.0
73.991027560,240.0
74.012760440,212.0
74.034493320,208.0
74.056226200,218.0
74.077959080,217.0
74.099691960,244.0
74.121424840,278.0
74.143157720,273.0
74.164890600,246.0
74.186623480,226.0
74.208356360,273.0
74.230089240,234.0
74.251822120,263.0
74.273555000,249.0
74.295287880,263.0
74.317020760,263.0
74.338753640,277.0
74.360486520,292.0
74.382219400,265.0
74.403952280,256.0
74.425685160,261.0
74.447418040,279.0
74.469150920,237.0
74.490883800,277.0
74.512616680,223.0
74.534349560,236.0
74.556082440,234.0
74.577815320,272.0
74.599548200,247.0
74.621281080,230.0
74.643013960,282.0
74.664746840,298.0
74.686479720,263.0
74.708212600,279.0
74.729945480,289.0
74.751678360,327.0
74.773411240,331.0
74.795144120,344.0
74.816877000,326.0
74.838609880,353.0
74.860342760,364.0
74.882075640,364.0
74.903808520,429.0
74.925541400,422.0
74.947274280,384.0
74.969007160,390.0
74.990740040,448.0
75.012472920,407.0
75.034205800,505.0
75.055938680,567.0
75.077671560,628.0
75.099404440,744.0
75.121137320,926.0
75.142870200,1227.0
75.164603080,1832.0
75.186335960,2788.0
75.208068840,4074.0
75.229801720,5544.0
75.251534600,6260.0
75.273267480,5983.0
75.295000360,4554.0
75.316733240,3059.0
75.338466120,2155.0
75.360199000,1738.0
75.381931880,1651.0
75.403664760,1939.0
75.425397640,2382.0
75.447130520,2971.0
75.468863400,3405.0
75.490596280,3204.0
75.512329160,2598.0
75.534062040,1893.0
75.555794920,1226.0
75.577527800,881.0
75.599260680,659.0
75.620993560,607.0
75.642726440,503.0
75.664459320,454.0
75.686192200,404.0
75.707925080,389.0
75.729657960,364.0
75.751390840,343.0
75.773123720,340.0
75.794856600,315.0
75.816589480,305.0
75.838322360,309.0
75.860055240,286.0
75.881788120,292.0
75.903521000,292.0
75.925253880,274.0
75.946986760,272.0
75.968719640,243.0
75.990452520,242.0
76.012185400,258.0
76.033918280,243.0
76.055651160,247.0
76.077384040,260.0
76.099116920,240.0
76.120849800,215.0
76.142582680,203.0
76.164315560,251.0
76.186048440,248.0
76.207781320,205.0
76.229514200,238.0
76.251247080,227.0
76.272979960,273.0
76.294712840,229.0
76.316445720,227.0
76.338178600,237.0
76.359911480,231.0
76.381644360,247.0
76.403377240,239.0
76.425110120,202.0
76.446843000,226.0
76.468575880,229.0
76.490308760,184.0
76.512041640,219.0
76.533774520,243.0
76.555507400,248.0
76.577240280,197.0
76.598973160,210.0
76.620706040,226.0
76.642438920,219.0
76.664171800,245.0
76.685904680,199.0
76.707637560,203.0
76.729370440,219.0
76.751103320,213.0
76.772836200,198.0
76.794569080,206.0
76.816301960,223.0
76.838034840,228.0
76.859767720,210.0
76.881500600,258.0
76.903233480,216.0
76.924966360,214.0
76.946699240,201.0
76.968432120,229.0
76.990165000,218.0
77.011897880,196.0
77.033630760,219.0
77.055363640,217.0
77.077096520,220.0
77.098829400,192.0
77.120562280,218.0
77.142295160,198.0
77.164028040,206.0
77.185760920,224.0
77.207493800,246.0
77.229226680,213.0
77.250959560,178.0
77.272692440,208.0
77.294425320,233.0
77.316158200,239.0
77.337891080,205.0
77.359623960,209.0
77.381356840,156.0
77.403089720,177.0
77.424822600,201.0
77.446555480,213.0
77.468288360,199.0
77.490021240,181.0
77.511754120,192.0
77.533487000,199.0
77.555219880,220.0
77.576952760,205.0
77.598685640,185.0
77.620418520,204.0
77.642151400,177.0
77.663884280,200.0
77.685617160,208.0
77.707350040,189.0
77.729082920,188.0
77.750815800,208.0
77.772548680,183.0
77.794281560,212.0
77.816014440,208.0
77.837747320,178.0
77.859480200,201.0
77.881213080,198.0
77.902945960,188.0
77.924678840,203.0
77.946411720,203.0
77.968144600,187.0
77.989877480,199.0
78.011610360,201.0
78.033343240,195.0
78.055076120,204.0
78.076809000,197.0
78.098541880,195.0
78.120274760,193.0
78.142007640,193.0
78.163740520,213.0
78.185473400,198.0
78.207206280,223.0
78.228939160,166.0
78.250672040,221.0
78.272404920,210.0
78.294137800,183.0
78.315870680,194.0
78.337603560,163.0
78.359336440,215.0
78.381069320,192.0
78.402802200,200.0
78.424535080,189.0
78.446267960,191.0
78.468000840,204.0
78.489733720,212.0
78.511466600,204.0
78.533199480,175.0
78.554932360,187.0
78.576665240,201.0
78.598398120,208.0
78.620131000,204.0
78.641863880,189.0
78.663596760,189.0
78.685329640,190.0
78.707062520,236.0
78.728795400,204.0
78.750528280,198.0
78.772261160,204.0
78.793994040,189.0
78.815726920,210.0
78.837459800,197.0
78.859192680,214.0
78.880925560,182.0
78.902658440,196.0
78.924391320,185.0
78.946124200,173.0
78.967857080,193.0
78.989589960,205.0
79.011322840,201.0
79.033055720,199.0
79.054788600,166.0
79.076521480,211.0
79.098254360,191.0
79.119987240,180.0
79.141720120,194.0
79.163453000,178.0
79.185185880,201.0
79.206918760,169.0
79.228651640,205.0
79.250384520,179.0
79.272117400,187.0
79.293850280,193.0
79.315583160,189.0
79.337316040,184.0
79.359048920,189.0
79.380781800,213.0
79.402514680,171.0
79.424247560,189.0
79.445980440,196.0
79.467713320,193.0
79.489446200,186.0
79.511179080,175.0
79.532911960,175.0
79.554644840,194.0
79.576377720,157.0
79.598110600,217.0
79.619843480,181.0
79.641576360,217.0
79.663309240,227.0
79.685042120,193.0
79.706775000,189.0
79.728507880,195.0
79.750240760,209.0
79.771973640,206.0
79.793706520,199.0
79.815439400,220.0
79.837172280,202.0
79.858905160,208.0
79.880638040,175.0
79.902370920,213.0
79.924103800,184.0
79.945836680,203.0
79.967569560,200.0
79.989302440,205.0
80.011035320,157.0
80.032768200,190.0
80.054501080,194.0
80.076233960,192.0
80.097966840,184.0
80.119699720,187.0
80.141432600,193.0
80.163165480,166.0
80.184898360,172.0
80.206631240,176.0
80.228364120,198.0
80.250097000,179.0
80.271829880,206.0
80.293562760,206.0
80.315295640,184.0
80.337028520,182.0
80.358761400,193.0
80.380494280,187.0
80.402227160,189.0
80.423960040,193.0
80.445692920,187.0
80.467425800,190.0
80.489158680,202.0
80.510891560,208.0
80.532624440,203.0
80.554357320,187.0
80.576090200,214.0
80.597823080,182.0
80.619555960,174.0
80.641288840,196.0
80.663021720,177.0
80.684754600,186.0
80.706487480,195.0
80.728220360,193.0
80.749953240,186.0
80.771686120,212.0
80.793419000,189.0
80.815151880,190.0
80.836884760,189.0
80.858617640,191.0
80.880350520,205.0
80.902083400,218.0
80.923816280,183.0
80.945549160,191.0
80.967282040,214.0
80.989014920,184.0
81.010747800,213.0
81.032480680,192.0
81.054213560,189.0
81.075946440,191.0
81.097679320,172.0
81.119412200,180.0
81.141145080,188.0
81.162877960,177.0
81.184610840,204.0
81.206343720,194.0
81.228076600,175.0
81.249809480,192.0
81.271542360,185.0
81.293275240,182.0
81.315008120,177.0
81.336741000,195.0
81.358473880,174.0
81.380206760,177.0
81.401939640,207.0
81.423672520,190.0
81.445405400,194.0
81.467138280,188.0
81.488871160,174.0
81.510604040,195.0
81.532336920,184.0
81.554069800,205.0
81.575802680,178.0
81.597535560,173.0
81.619268440,159.0
81.641001320,188.0
81.662734200,160.0
81.684467080,193.0
81.706199960,219.0
81.727932840,176.0
81.749665720,195.0
81.771398600,168.0
81.793131480,174.0
81.814864360,200.0
81.836597240,188.0
81.858330120,204.0
81.880063000,190.0
81.901795880,220.0
81.923528760,220.0
81.945261640,192.0
81.966994520,171.0
81.988727400,211.0
82.010460280,187.0
82.032193160,190.0
82.053926040,200.0
82.075658920,184.0
82.097391800,186.0
82.119124680,192.0
82.140857560,187.0
82.162590440,161.0
82.184323320,165.0
82.206056200,196.0
82.227789080,190.0
82.249521960,188.0
82.271254840,189.0
82.292987720,176.0
82.314720600,185.0
82.336453480,174.0
82.358186360,209.0
82.379919240,176.0
82.401652120,205.0
82.423385000,202.0
82.445117880,215.0
82.466850760,181.0
82.488583640,209.0
82.510316520,178.0
82.532049400,208.0
82.553782280,205.0
82.575515160,175.0
82.597248040,217.0
82.618980920,205.0
82.640713800,215.0
82.662446680,178.0
82.684179560,201.0
82.705912440,210.0
82.727645320,192.0
82.749378200,211.0
82.771111080,209.0
82.792843960,199.0
82.814576840,207.0
82.836309720,218.0
82.858042600,220.0
82.879775480,210.0
82.901508360,212.0
82.923241240,219.0
82.944974120,186.0
82.966707000,179.0
82.988439880,208.0
83.010172760,209.0
83.031905640,192.0
83.053638520,232.0
83.075371400,188.0
83.097104280,207.0
83.118837160,192.0
83.140570040,193.0
83.162302920,219.0
83.184035800,199.0
83.205768680,226.0
83.227501560,214.0
83.249234440,180.0
83.270967320,191.0
83.292700200,187.0
83.314433080,202.0
83.336165960,207.0
83.357898840,203.0
83.379631720,222.0
83.401364600,217.0
83.423097480,243.0
83.444830360,245.0
83.466563240,248.0
83.488296120,260.0
83.510029000,248.0
83.531761880,279.0
83.553494760,276.0
83.575227640,280.0
83.596960520,265.0
83.618693400,236.0
83.640426280,267.0
83.662159160,304.0
83.683892040,308.0
83.705624920,346.0
83.727357800,386.0
83.749090680,417.0
83.770823560,416.0
83.792556440,521.0
83.814289320,629.0
83.836022200,748.0
83.857755080,1033.0
83.879487960,1484.0
83.901220840,2107.0
83.922953720,2868.0
83.944686600,3409.0
83.966419480,3503.0
83.988152360,2984.0
84.009885240,2044.0
84.031618120,1542.0
84.053351000,1123.0
84.075083880,925.0
84.096816760,913.0
84.118549640,924.0
84.140282520,1114.0
84.162015400,1372.0
84.183748280,1755.0
84.205481160,1886.0
84.227214040,1878.0
84.248946920,1572.0
84.270679800,1109.0
84.292412680,842.0
84.314145560,644.0
84.335878440,496.0
84.357611320,409.0
84.379344200,378.0
84.401077080,370.0
84.422809960,308.0
84.444542840,295.0
84.466275720,319.0
84.488008600,249.0
84.509741480,235.0
84.531474360,261.0
84.553207240,227.0
84.574940120,210.0
84.596673000,208.0
84.618405880,218.0
84.640138760,201.0
84.661871640,233.0
84.683604520,210.0
84.705337400,192.0
84.727070280,214.0
84.748803160,190.0
84.770536040,189.0
84.792268920,182.0
84.814001800,203.0
84.835734680,209.0
84.857467560,182.0
84.879200440,196.0
84.900933320,201.0
84.922666200,199.0
84.944399080,192.0
84.966131960,176.0
84.987864840,218.0
85.009597720,186.0
85.031330600,177.0
85.053063480,206.0
85.074796360,181.0
85.096529240,163.0
85.118262120,186.0
85.139995000,186.0
85.161727880,173.0
85.183460760,152.0
85.205193640,174.0
85.226926520,177.0
85.248659400,176.0
85.270392280,189.0
85.292125160,175.0
85.313858040,166.0
85.335590920,190.0
85.357323800,191.0
85.379056680,183.0
85.400789560,183.0
85.422522440,181.0
85.444255320,175.0
85.465988200,203.0
85.487721080,186.0
85.509453960,166.0
85.531186840,194.0
85.552919720,185.0
85.574652600,184.0
85.596385480,175.0
85.618118360,172.0
85.639851240,198.0
85.661584120,174.0
85.683317000,163.0
85.705049880,127.0
85.726782760,181.0
85.748515640,201.0
85.770248520,187.0
85.791981400,187.0
85.813714280,178.0
85.835447160,163.0
85.857180040,168.0
85.878912920,159.0
85.900645800,169.0
85.922378680,178.0
85.944111560,189.0
85.965844440,181.0
85.987577320,186.0
86.009310200,172.0
86.031043080,191.0
86.052775960,171.0
86.074508840,191.0
86.096241720,170.0
86.117974600,204.0
86.139707480,171.0
86.161440360,178.0
86.183173240,175.0
86.204906120,158.0
86.226639000,172.0
86.248371880,168.0
86.270104760,193.0
86.291837640,178.0
86.313570520,182.0
86.335303400,161.0
86.357036280,173.0
86.378769160,163.0
86.400502040,152.0
86.422234920,206.0
86.443967800,151.0
86.465700680,169.0
86.487433560,192.0
86.509166440,185.0
86.530899320,160.0
86.552632200,148.0
86.574365080,166.0
86.596097960,185.0
86.617830840,163.0
86.639563720,163.0
86.661296600,151.0
86.683029480,167.0
86.704762360,155.0
86.726495240,168.0
86.748228120,167.0
86.769961000,176.0
86.791693880,168.0
86.813426760,168.0
86.835159640,186.0
86.856892520,186.0
86.878625400,190.0
86.900358280,157.0
86.922091160,163.0
86.943824040,172.0
86.965556920,154.0
86.987289800,155.0
87.009022680,162.0
87.030755560,192.0
87.052488440,203.0
87.074221320,163.0
87.095954200,183.0
87.117687080,179.0
87.139419960,153.0
87.161152840,143.0
87.182885720,142.0
87.204618600,174.0
87.226351480,158.0
87.248084360,158.0
87.269817240,156.0
87.291550120,188.0
87.313283000,176.0
87.335015880,164.0
87.356748760,178.0
87.378481640,174.0
87.400214520,161.0
87.421947400,157.0
87.443680280,176.0
87.465413160,174.0
87.487146040,159.0
87.508878920,145.0
87.530611800,173.0
87.552344680,152.0
87.574077560,151.0
87.595810440,182.0
87.617543320,186.0
87.639276200,155.0
87.661009080,172.0
87.682741960,176.0
87.704474840,166.0
87.726207720,165.0
87.747940600,178.0
87.769673480,152.0
87.791406360,147.0
87.813139240,172.0
87.834872120,185.0
87.856605000,179.0
87.878337880,179.0
87.900070760,186.0
87.921803640,176.0
87.943536520,175.0
87.965269400,167.0
87.987002280,146.0
88.008735160,137.0
88.030468040,156.0
88.052200920,195.0
88.073933800,161.0
88.095666680,173.0
88.117399560,168.0
88.139132440,188.0
88.160865320,153.0
88.182598200,170.0
88.204331080,193.0
88.226063960,189.0
88.247796840,166.0
88.269529720,165.0
88.291262600,171.0
88.312995480,174.0
88.334728360,183.0
88.356461240,156.0
88.378194120,165.0
88.399927000,184.0
88.421659880,179.0
88.443392760,188.0
88.465125640,180.0
88.486858520,195.0
88.508591400,200.0
88.530324280,181.0
88.552057160,179.0
88.573790040,189.0
88.595522920,189.0
88.617255800,159.0
88.638988680,179.0
88.660721560,165.0
88.682454440,163.0
88.704187320,157.0
88.725920200,175.0
88.747653080,161.0
88.769385960,154.0
88.791118840,185.0
88.812851720,162.0
88.834584600,171.0
88.856317480,165.0
88.878050360,161.0
88.899783240,176.0
88.921516120,147.0
88.943249000,146.0
88.964981880,152.0
88.986714760,147.0
89.008447640,169.0
89.030180520,184.0
89.051913400,152.0
89.073646280,153.0
89.095379160,164.0
89.117112040,171.0
89.138844920,148.0
89.160577800,174.0
89.182310680,148.0
89.204043560,160.0
89.225776440,151.0
89.247509320,169.0
89.269242200,161.0
89.290975080,166.0
89.312707960,141.0
89.334440840,171.0
89.356173720,139.0
89.377906600,180.0
89.399639480,168.0
89.421372360,153.0
89.443105240,178.0
89.464838120,163.0
89.486571000,182.0
89.508303880,180.0
89.530036760,160.0
89.551769640,148.0
89.573502520,174.0
89.595235400,176.0
89.616968280,157.0
89.638701160,145.0
89.660434040,146.0
89.682166920,169.0
89.703899800,157.0
89.725632680,148.0
89.747365560,165.0
89.769098440,184.0
89.790831320,164.0
89.812564200,158.0
89.834297080,171.0
89.856029960,153.0
89.877762840,176.0
89.899495720,188.0
89.921228600,169.0
89.942961480,157.0
89.964694360,151.0
89.986427240,167.0
90.008160120,207.0
90.029893000,161.0
90.051625880,151.0
90.073358760,206.0
90.095091640,187.0
90.116824520,158.0
90.138557400,191.0
90.160290280,178.0
90.182023160,168.0
90.203756040,195.0
90.225488920,203.0
90.247221800,197.0
90.268954680,267.0
90.290687560,297.0
90.312420440,384.0
90.334153320,496.0
90.355886200,598.0
90.377619080,674.0
90.399351960,666.0
90.421084840,510.0
90.442817720,446.0
90.464550600,343.0
90.486283480,285.0
90.508016360,231.0
90.529749240,236.0
90.551482120,243.0
90.573215000,258.0
90.594947880,258.0
90.616680760,331.0
90.638413640,380.0
90.660146520,417.0
90.681879400,397.0
90.703612280,373.0
90.725345160,275.0
90.747078040,258.0
90.768810920,241.0
90.790543800,230.0
90.812276680,202.0
90.834009560,199.0
90.855742440,184.0
90.877475320,156.0
90.899208200,164.0
90.920941080,172.0
90.942673960,181.0
90.964406840,206.0
90.986139720,180.0
91.007872600,172.0
91.029605480,196.0
91.051338360,155.0
91.073071240,175.0
91.094804120,182.0
91.116537000,188.0
91.138269880,167.0
91.160002760,160.0
91.181735640,159.0
91.203468520,168.0
91.225201400,153.0
91.246934280,181.0
91.268667160,164.0
91.290400040,182.0
91.312132920,156.0
91.333865800,156.0
91.355598680,173.0
91.377331560,188.0
91.399064440,185.0
91.420797320,167.0
91.442530200,162.0
91.464263080,149.0
91.485995960,185.0
91.507728840,174.0
91.529461720,150.0
91.551194600,173.0
91.572927480,151.0
91.594660360,142.0
91.616393240,154.0
91.638126120,150.0
91.659859000,170.0
91.681591880,173.0
91.703324760,160.0
91.725057640,143.0
91.746790520,167.0
91.768523400,177.0
91.790256280,156.0
91.811989160,152.0
91.833722040,185.0
91.855454920,148.0
91.877187800,162.0
91.898920680,141.0
91.920653560,152.0
91.942386440,183.0
91.964119320,163.0
91.985852200,139.0
92.007585080,149.0
92.029317960,185.0
92.051050840,143.0
92.072783720,175.0
92.094516600,133.0
92.116249480,154.0
92.137982360,145.0
92.159715240,180.0
92.181448120,148.0
92.203181000,154.0
92.224913880,146.0
92.246646760,134.0
92.268379640,151.0
92.290112520,147.0
92.311845400,176.0
92.333578280,156.0
92.355311160,149.0
92.377044040,152.0
92.398776920,128.0
92.420509800,160.0
92.442242680,137.0
92.463975560,171.0
92.485708440,153.0
92.507441320,160.0
92.529174200,150.0
92.550907080,146.0
92.572639960,154.0
92.594372840,152.0
92.616105720,143.0
92.637838600,140.0
92.659571480,144.0
92.681304360,157.0
92.703037240,157.0
92.724770120,157.0
92.746503000,153.0
92.768235880,139.0
92.789968760,149.0
92.811701640,164.0
92.833434520,154.0
92.855167400,152.0
92.876900280,135.0
92.898633160,171.0
92.920366040,143.0
92.942098920,144.0
92.963831800,157.0
92.985564680,170.0
93.007297560,114.0
93.029030440,160.0
93.050763320,152.0
93.072496200,182.0
93.094229080,168.0
93.115961960,158.0
93.137694840,160.0
93.159427720,150.0
93.181160600,177.0
93.202893480,161.0
93.224626360,127.0
93.246359240,165.0
93.268092120,154.0
93.289825000,158.0
93.311557880,162.0
93.333290760,154.0
93.355023640,149.0
93.376756520,151.0
93.398489400,148.0
93.420222280,151.0
93.441955160,134.0
93.463688040,154.0
93.485420920,144.0
93.507153800,143.0
93.528886680,164.0
93.550619560,160.0
93.572352440,162.0
93.594085320,158.0
93.615818200,167.0
93.637551080,146.0
93.659283960,153.0
93.681016840,154.0
93.702749720,141.0
93.724482600,152.0
93.746215480,153.0
93.767948360,177.0
93.789681240,144.0
93.811414120,145.0
93.833147000,158.0
93.854879880,153.0
93.876612760,158.0
93.898345640,158.0
93.920078520,166.0
93.941811400,152.0
93.963544280,154.0
93.985277160,132.0
94.007010040,137.0
94.028742920,152.0
94.050475800,150.0
94.072208680,133.0
94.093941560,150.0
94.115674440,140.0
94.137407320,165.0
94.159140200,169.0
94.180873080,163.0
94.202605960,170.0
94.224338840,174.0
94.246071720,157.0
94.267804600,127.0
94.289537480,148.0
94.311270360,140.0
94.333003240,153.0
94.354736120,203.0
94.376469000,158.0
94.398201880,164.0
94.419934760,150.0
94.441667640,139.0
94.463400520,123.0
94.485133400,158.0
94.506866280,127.0
94.528599160,144.0
94.550332040,139.0
94.572064920,136.0
94.593797800,164.0
94.615530680,146.0
94.637263560,152.0
94.658996440,137.0
94.680729320,176.0
94.702462200,163.0
94.724195080,151.0
94.745927960,150.0
94.767660840,181.0
94.789393720,149.0
94.811126600,153.0
94.832859480,144.0
94.854592360,157.0
94.876325240,158.0
94.898058120,158.0
94.919791000,145.0
94.941523880,136.0
94.963256760,160.0
94.984989640,127.0
95.006722520,162.0
95.028455400,143.0
95.050188280,137.0
95.071921160,144.0
95.093654040,143.0
95.115386920,157.0
95.137119800,157.0
95.158852680,188.0
95.180585560,163.0
95.202318440,147.0
95.224051320,148.0
95.245784200,140.0
95.267517080,152.0
95.289249960,176.0
95.310982840,148.0
95.332715720,124.0
95.354448600,162.0
95.376181480,156.0
95.397914360,160.0
95.419647240,152.0
95.441380120,161.0
95.463113000,158.0
95.484845880,172.0
95.506578760,185.0
95.528311640,172.0
95.550044520,159.0
95.571777400,176.0
95.593510280,149.0
95.615243160,149.0
95.636976040,154.0
95.658708920,165.0
95.680441800,158.0
95.702174680,167.0
95.723907560,159.0
95.745640440,162.0
95.767373320,165.0
95.789106200,141.0
95.810839080,158.0
95.832571960,137.0
95.854304840,157.0
95.876037720,161.0
95.897770600,164.0
95.919503480,138.0
95.941236360,145.0
95.962969240,153.0
95.984702120,137.0
96.006435000,149.0
96.028167880,134.0
96.049900760,137.0
96.071633640,163.0
96.093366520,159.0
96.115099400,141.0
96.136832280,161.0
96.158565160,140.0
96.180298040,164.0
96.202030920,157.0
96.223763800,164.0
96.245496680,171.0
96.267229560,170.0
96.288962440,160.0
96.310695320,143.0
96.332428200,160.0
96.354161080,151.0
96.375893960,160.0
96.397626840,134.0
96.419359720,180.0
96.441092600,179.0
96.462825480,150.0
96.484558360,145.0
96.506291240,151.0
96.528024120,152.0
96.549757000,145.0
96.571489880,167.0
96.593222760,158.0
96.614955640,160.0
96.636688520,164.0
96.658421400,161.0
96.680154280,144.0
96.701887160,177.0
96.723620040,137.0
96.745352920,161.0
96.767085800,157.0
96.788818680,165.0
96.810551560,158.0
96.832284440,135.0
96.854017320,170.0
96.875750200,136.0
96.897483080,147.0
96.919215960,151.0
96.940948840,140.0
96.962681720,152.0
96.984414600,148.0
97.006147480,171.0
97.027880360,174.0
97.049613240,163.0
97.071346120,133.0
97.093079000,155.0
97.114811880,157.0
97.136544760,142.0
97.158277640,155.0
97.180010520,138.0
97.201743400,166.0
97.223476280,150.0
97.245209160,186.0
97.266942040,169.0
97.288674920,174.0
97.310407800,156.0
97.332140680,172.0
97.353873560,163.0
97.375606440,175.0
97.397339320,141.0
97.419072200,172.0
97.440805080,156.0
97.462537960,186.0
97.484270840,143.0
97.506003720,168.0
97.527736600,175.0
97.549469480,181.0
97.571202360,162.0
97.592935240,162.0
97.614668120,148.0
97.636401000,140.0
97.658133880,147.0
97.679866760,151.0
97.701599640,132.0
97.723332520,161.0
97.745065400,165.0
97.766798280,168.0
97.788531160,145.0
97.810264040,152.0
97.831996920,140.0
97.853729800,130.0
97.875462680,155.0
97.897195560,173.0
97.918928440,177.0
97.940661320,169.0
97.962394200,179.0
97.984127080,158.0
98.005859960,152.0
98.027592840,151.0
98.049325720,164.0
98.071058600,158.0
98.092791480,153.0
98.114524360,161.0
98.136257240,141.0
98.157990120,154.0
98.179723000,131.0
98.201455880,135.0
98.223188760,169.0
98.244921640,167.0
98.266654520,165.0
98.288387400,140.0
98.310120280,148.0
98.331853160,157.0
98.353586040,160.0
98.375318920,158.0
98.397051800,143.0
98.418784680,164.0
98.440517560,150.0
98.462250440,163.0
98.483983320,176.0
98.505716200,168.0
98.527449080,168.0
98.549181960,158.0
98.570914840,135.0
98.592647720,151.0
98.614380600,149.0
98.636113480,152.0
98.657846360,145.0
98.679579240,165.0
98.701312120,154.0
98.723045000,145.0
98.744777880,184.0
98.766510760,156.0
98.788243640,154.0
98.809976520,143.0
98.831709400,145.0
98.853442280,172.0
98.875175160,163.0
98.896908040,166.0
98.918640920,171.0
98.940373800,154.0
98.962106680,183.0
98.983839560,163.0
99.005572440,173.0
99.027305320,148.0
99.049038200,167.0
99.070771080,161.0
99.092503960,186.0
99.114236840,154.0
99.135969720,146.0
99.157702600,127.0
99.179435480,157.0
99.201168360,159.0
99.222901240,140.0
99.244634120,157.0
99.266367000,158.0
99.288099880,160.0
99.309832760,164.0
99.331565640,182.0
99.353298520,169.0
99.375031400,174.0
99.396764280,151.0
99.418497160,164.0
99.440230040,165.0
99.461962920,167.0
99.483695800,174.0
99.505428680,158.0
99.527161560,170.0
99.548894440,144.0
99.570627320,151.0
99.592360200,161.0
99.614093080,186.0
99.635825960,170.0
99.657558840,155.0
99.679291720,180.0
99.701024600,151.0
99.722757480,173.0
99.744490360,178.0
99.766223240,157.0
99.787956120,146.0
99.809689000,175.0
99.831421880,153.0
99.853154760,181.0
99.874887640,147.0
99.896620520,168.0
99.918353400,156.0
99.940086280,152.0
99.961819160,171.0
99.983552040,186.0
100.005284920,138.0
100.027017800,158.0
100.048750680,164.0
100.070483560,172.0
100.092216440,170.0
100.113949320,168.0
100.135682200,165.0
100.157415080,197.0
100.179147960,193.0
100.200880840,177.0
100.222613720,164.0
100.244346600,160.0
100.266079480,178.0
100.287812360,202.0
100.309545240,161.0
100.331278120,168.0
100.353011000,202.0
100.374743880,204.0
100.396476760,182.0
100.418209640,183.0
100.439942520,210.0
100.461675400,194.0
100.483408280,202.0
100.505141160,171.0
100.526874040,192.0
100.548606920,185.0
100.570339800,211.0
100.592072680,185.0
100.613805560,196.0
100.635538440,200.0
100.657271320,199.0
100.679004200,231.0
100.700737080,197.0
100.722469960,199.0
100.744202840,220.0
100.765935720,225.0
100.787668600,190.0
100.809401480,212.0
100.831134360,236.0
100.852867240,243.0
100.874600120,231.0
100.896333000,240.0
100.918065880,236.0
100.939798760,270.0
100.961531640,287.0
100.983264520,312.0
101.004997400,408.0
101.026730280,453.0
101.048463160,639.0
101.070196040,809.0
101.091928920,1106.0
101.113661800,1476.0
101.135394680,1484.0
101.157127560,1643.0
101.178860440,1311.0
101.200593320,1007.0
101.222326200,720.0
101.244059080,656.0
101.265791960,503.0
101.287524840,398.0
101.309257720,375.0
101.330990600,388.0
101.352723480,403.0
101.374456360,381.0
101.396189240,489.0
101.417922120,576.0
101.439655000,702.0
101.461387880,767.0
101.483120760,892.0
101.504853640,875.0
101.526586520,755.0
101.548319400,551.0
101.570052280,461.0
101.591785160,410.0
101.613518040,312.0
101.635250920,306.0
101.656983800,273.0
101.678716680,230.0
101.700449560,241.0
101.722182440,205.0
101.743915320,211.0
101.765648200,241.0
101.787381080,219.0
101.809113960,195.0
101.830846840,193.0
101.852579720,181.0
101.874312600,178.0
101.896045480,205.0
101.917778360,151.0
101.939511240,201.0
101.961244120,206.0
101.982977000,178.0
102.004709880,168.0
102.026442760,165.0
102.048175640,196.0
102.069908520,176.0
102.091641400,190.0
102.113374280,194.0
102.135107160,178.0
102.156840040,177.0
102.178572920,191.0
102.200305800,180.0
102.222038680,212.0
102.243771560,166.0
102.265504440,195.0
102.287237320,183.0
102.308970200,167.0
102.330703080,154.0
102.352435960,180.0
102.374168840,179.0
102.395901720,173.0
102.417634600,193.0
102.439367480,190.0
102.461100360,187.0
102.482833240,203.0
102.504566120,190.0
102.526299000,191.0
102.548031880,173.0
102.569764760,177.0
102.591497640,176.0
102.613230520,171.0
102.634963400,197.0
102.656696280,169.0
102.678429160,155.0
102.700162040,165.0
102.721894920,160.0
102.743627800,182.0
102.765360680,185.0
102.787093560,159.0
102.808826440,181.0
102.830559320,164.0
102.852292200,159.0
102.874025080,173.0
102.895757960,182.0
102.917490840,189.0
102.939223720,192.0
102.960956600,164.0
102.982689480,181.0
103.004422360,178.0
103.026155240,175.0
103.047888120,168.0
103.069621000,210.0
103.091353880,153.0
103.113086760,182.0
103.134819640,167.0
103.156552520,176.0
103.178285400,172.0
103.200018280,203.0
103.221751160,183.0
103.243484040,187.0
103.265216920,180.0
103.286949800,189.0
103.308682680,198.0
103.330415560,154.0
103.352148440,196.0
103.373881320,171.0
103.395614200,155.0
103.417347080,176.0
103.439079960,190.0
103.460812840,178.0
103.482545720,171.0
103.504278600,177.0
103.526011480,191.0
103.547744360,209.0
103.569477240,141.0
103.591210120,169.0
103.612943000,181.0
103.634675880,185.0
103.656408760,169.0
103.678141640,160.0
103.699874520,170.0
103.721607400,179.0
103.743340280,151.0
103.765073160,169.0
103.786806040,181.0
103.808538920,182.0
103.830271800,170.0
103.852004680,207.0
103.873737560,168.0
103.895470440,174.0
103.917203320,193.0
103.938936200,163.0
103.960669080,181.0
103.982401960,177.0
104.004134840,160.0
104.025867720,182.0
104.047600600,168.0
104.069333480,176.0
104.091066360,172.0
104.112799240,179.0
104.134532120,197.0
104.156265000,152.0
104.177997880,177.0
104.199730760,175.0
104.221463640,183.0
104.243196520,169.0
104.264929400,170.0
104.286662280,172.0
104.308395160,175.0
104.330128040,195.0
104.351860920,210.0
104.373593800,167.0
104.395326680,162.0
104.417059560,164.0
104.438792440,178.0
104.460525320,155.0
104.482258200,201.0
104.503991080,189.0
104.525723960,188.0
104.547456840,147.0
104.569189720,162.0
104.590922600,174.0
104.612655480,154.0
104.634388360,154.0
104.656121240,198.0
104.677854120,161.0
104.699587000,150.0
104.721319880,184.0
104.743052760,177.0
104.764785640,183.0
104.786518520,183.0
104.808251400,164.0
104.829984280,161.0
104.851717160,156.0
104.873450040,183.0
104.895182920,171.0
104.916915800,184.0
104.938648680,193.0
104.960381560,182.0
104.982114440,164.0
105.003847320,206.0
105.025580200,174.0
105.047313080,173.0
105.069045960,186.0
105.090778840,166.0
105.112511720,185.0
105.134244600,171.0
105.155977480,202.0
105.177710360,169.0
105.199443240,187.0
105.221176120,184.0
105.242909000,194.0
105.264641880,164.0
105.286374760,163.0
105.308107640,180.0
105.329840520,166.0
105.351573400,171.0
105.373306280,174.0
105.395039160,200.0
105.416772040,178.0
105.438504920,196.0
105.460237800,208.0
105.481970680,174.0
105.503703560,202.0
105.525436440,169.0
105.547169320,189.0
105.568902200,213.0
105.590635080,187.0
105.612367960,163.0
105.634100840,186.0
105.655833720,194.0
105.677566600,206.0
105.699299480,192.0
105.721032360,177.0
105.742765240,187.0
105.764498120,187.0
105.786231000,202.0
105.807963880,168.0
105.829696760,175.0
105.851429640,202.0
105.873162520,181.0
105.894895400,188.0
105.916628280,179.0
105.938361160,182.0
105.960094040,188.0
105.981826920,170.0
106.003559800,193.0
106.025292680,207.0
106.047025560,173.0
106.068758440,146.0
106.090491320,191.0
106.112224200,163.0
106.133957080,181.0
106.155689960,193.0
106.177422840,181.0
106.199155720,183.0
106.220888600,177.0
106.242621480,183.0
106.264354360,189.0
106.286087240,169.0
106.307820120,207.0
106.329553000,193.0
106.351285880,193.0
106.373018760,179.0
106.394751640,192.0
106.416484520,160.0
106.438217400,168.0
106.459950280,193.0
106.481683160,221.0
106.503416040,199.0
106.525148920,190.0
106.546881800,204.0
106.568614680,185.0
106.590347560,180.0
106.612080440,185.0
106.633813320,196.0
106.655546200,191.0
106.677279080,226.0
106.699011960,205.0
106.720744840,212.0
106.742477720,190.0
106.764210600,194.0
106.785943480,167.0
106.807676360,169.0
106.829409240,187.0
106.851142120,200.0
106.872875000,218.0
106.894607880,170.0
106.916340760,167.0
106.938073640,186.0
106.959806520,208.0
106.981539400,196.0
107.003272280,185.0
107.025005160,183.0
107.046738040,206.0
107.068470920,183.0
107.090203800,211.0
107.111936680,188.0
107.133669560,202.0
107.155402440,181.0
107.177135320,189.0
107.198868200,218.0
107.220601080,156.0
107.242333960,169.0
107.264066840,191.0
107.285799720,178.0
107.307532600,205.0
107.329265480,192.0
107.350998360,198.0
107.372731240,207.0
107.394464120,234.0
107.416197000,232.0
107.437929880,218.0
107.459662760,174.0
107.481395640,198.0
107.503128520,185.0
107.524861400,220.0
107.546594280,228.0
107.568327160,214.0
107.590060040,228.0
107.611792920,242.0
107.633525800,275.0
107.655258680,316.0
107.676991560,312.0
107.698724440,424.0
107.720457320,428.0
107.742190200,499.0
107.763923080,520.0
107.785655960,475.0
107.807388840,435.0
107.829121720,422.0
107.850854600,336.0
107.872587480,316.0
107.894320360,274.0
107.916053240,237.0
107.937786120,246.0
107.959519000,279.0
107.981251880,275.0
108.002984760,289.0
108.024717640,286.0
108.046450520,246.0
108.068183400,295.0
108.089916280,305.0
108.111649160,342.0
108.133382040,364.0
108.155114920,354.0
108.176847800,364.0
108.198580680,322.0
108.220313560,285.0
108.242046440,303.0
108.263779320,244.0
108.285512200,221.0
108.307245080,224.0
108.328977960,243.0
108.350710840,231.0
108.372443720,225.0
108.394176600,210.0
108.415909480,220.0
108.437642360,202.0
108.459375240,180.0
108.481108120,180.0
108.502841000,175.0
108.524573880,205.0
108.546306760,215.0
108.568039640,209.0
108.589772520,207.0
108.611505400,194.0
108.633238280,200.0
108.654971160,202.0
108.676704040,200.0
108.698436920,170.0
108.720169800,202.0
108.741902680,218.0
108.763635560,215.0
108.785368440,222.0
108.807101320,205.0
108.828834200,203.0
108.850567080,203.0
108.872299960,195.0
108.894032840,215.0
108.915765720,214.0
108.937498600,210.0
108.959231480,177.0
108.980964360,217.0
109.002697240,189.0
109.024430120,196.0
109.046163000,220.0
109.067895880,218.0
109.089628760,219.0
109.111361640,228.0
109.133094520,198.0
109.154827400,216.0
109.176560280,243.0
109.198293160,222.0
109.220026040,224.0
109.241758920,244.0
109.263491800,227.0
109.285224680,211.0
109.306957560,248.0
109.328690440,230.0
109.350423320,260.0
109.372156200,227.0
109.393889080,292.0
109.415621960,262.0
109.437354840,272.0
109.459087720,279.0
109.480820600,256.0
109.502553480,245.0
109.524286360,275.0
109.546019240,265.0
109.567752120,287.0
109.589485000,279.0
109.611217880,297.0
109.632950760,290.0
109.654683640,296.0
109.676416520,290.0
109.698149400,339.0
109.719882280,362.0
109.741615160,367.0
109.763348040,408.0
109.785080920,430.0
109.806813800,422.0
109.828546680,509.0
109.850279560,556.0
109.872012440,649.0
109.893745320,790.0
109.915478200,1011.0
109.937211080,1293.0
109.958943960,1873.0
109.980676840,2412.0
110.002409720,2967.0
