5.010866440 3983.0
5.032599320 3983.0
5.054332200 3860.0
5.076065080 3749.0
5.097797960 3732.0
5.119530840 3646.0
5.141263720 3745.0
5.162996600 3578.0
5.184729480 3590.0
5.206462360 3533.0
5.228195240 3526.0
5.249928120 3559.0
5.271661000 3429.0
5.293393880 3485.0
5.315126760 3298.0
5.336859640 3364.0
5.358592520 3238.0
5.380325400 3300.0
5.402058280 3244.0
5.423791160 3128.0
5.445524040 3157.0
5.467256920 3283.0
5.488989800 3111.0
5.510722680 3138.0
5.532455560 3069.0
5.554188440 3042.0
5.575921320 3066.0
5.597654200 3019.0
5.619387080 3052.0
5.641119960 2857.0
5.662852840 2917.0
5.684585720 2890.0
5.706318600 2911.0
5.728051480 2836.0
5.749784360 2877.0
5.771517240 2865.0
5.793250120 2797.0
5.814983000 2781.0
5.836715880 2783.0
5.858448760 2771.0
5.880181640 2651.0
5.901914520 2681.0
5.923647400 2612.0
5.945380280 2601.0
5.967113160 2580.0
5.988846040 2602.0
6.010578920 2666.0
6.032311800 2539.0
6.054044680 2660.0
6.075777560 2595.0
6.097510440 2587.0
6.119243320 2524.0
6.140976200 2527.0
6.162709080 2541.0
6.184441960 2612.0
6.206174840 2578.0
6.227907720 2526.0
6.249640600 2533.0
6.271373480 2466.0
6.293106360 2515.0
6.314839240 2429.0
6.336572120 2552.0
6.358305000 2496.0
6.380037880 2535.0
6.401770760 2503.0
6.423503640 2462.0
6.445236520 2483.0
6.466969400 2480.0
6.488702280 2467.0
6.510435160 2445.0
6.532168040 2470.0
6.553900920 2402.0
6.575633800 2459.0
6.597366680 2432.0
6.619099560 2482.0
6.640832440 2382.0
6.662565320 2465.0
6.684298200 2420.0
6.706031080 2446.0
6.727763960 2420.0
6.749496840 2457.0
6.771229720 2435.0
6.792962600 2437.0
6.814695480 2484.0
6.836428360 2439.0
6.858161240 2500.0
6.879894120 2384.0
6.901627000 2338.0
6.923359880 2342.0
6.945092760 2346.0
6.966825640 2346.0
6.988558520 2456.0
7.010291400 2426.0
7.032024280 2371.0
7.053757160 2386.0
7.075490040 2412.0
7.097222920 2419.0
7.118955800 2344.0
7.140688680 2306.0
7.162421560 2413.0
7.184154440 2376.0
7.205887320 2354.0
7.227620200 2464.0
7.249353080 2319.0
7.271085960 2353.0
7.292818840 2326.0
7.314551720 2386.0
7.336284600 2356.0
7.358017480 2291.0
7.379750360 2368.0
7.401483240 2351.0
7.423216120 2377.0
7.444949000 2343.0
7.466681880 2416.0
7.488414760 2349.0
7.510147640 2385.0
7.531880520 2385.0
7.553613400 2416.0
7.575346280 2366.0
7.597079160 2406.0
7.618812040 2319.0
7.640544920 2386.0
7.662277800 2410.0
7.684010680 2437.0
7.705743560 2427.0
7.727476440 2284.0
7.749209320 2499.0
7.770942200 2426.0
7.792675080 2403.0
7.814407960 2359.0
7.836140840 2339.0
7.857873720 2401.0
7.879606600 2389.0
7.901339480 2366.0
7.923072360 2323.0
7.944805240 2398.0
7.966538120 2366.0
7.988271000 2325.0
8.010003880 2438.0
8.031736760 2392.0
8.053469640 2432.0
8.075202520 2425.0
8.096935400 2555.0
8.118668280 2370.0
8.140401160 2321.0
8.162134040 2376.0
8.183866920 2387.0
8.205599800 2347.0
8.227332680 2355.0
8.249065560 2379.0
8.270798440 2371.0
8.292531320 2473.0
8.314264200 2284.0
8.335997080 2412.0
8.357729960 2380.0
8.379462840 2390.0
8.401195720 2415.0
8.422928600 2446.0
8.444661480 2395.0
8.466394360 2456.0
8.488127240 2387.0
8.509860120 2480.0
8.531593000 2416.0
8.553325880 2498.0
8.575058760 2418.0
8.596791640 2334.0
8.618524520 2394.0
8.640257400 2489.0
8.661990280 2339.0
8.683723160 2321.0
8.705456040 2383.0
8.727188920 2365.0
8.748921800 2387.0
8.770654680 2414.0
8.792387560 2403.0
8.814120440 2377.0
8.835853320 2390.0
8.857586200 2382.0
8.879319080 2316.0
8.901051960 2336.0
8.922784840 2430.0
8.944517720 2400.0
8.966250600 2450.0
8.987983480 2402.0
9.009716360 2468.0
9.031449240 2452.0
9.053182120 2356.0
9.074915000 2400.0
9.096647880 2277.0
9.118380760 2400.0
9.140113640 2473.0
9.161846520 2398.0
9.183579400 2363.0
9.205312280 2445.0
9.227045160 2383.0
9.248778040 2449.0
9.270510920 2396.0
9.292243800 2415.0
9.313976680 2431.0
9.335709560 2405.0
9.357442440 2443.0
9.379175320 2465.0
9.400908200 2467.0
9.422641080 2463.0
9.444373960 2433.0
9.466106840 2475.0
9.487839720 2476.0
9.509572600 2553.0
9.531305480 2452.0
9.553038360 2516.0
9.574771240 2470.0
9.596504120 2428.0
9.618237000 2442.0
9.639969880 2518.0
9.661702760 2410.0
9.683435640 2441.0
9.705168520 2516.0
9.726901400 2451.0
9.748634280 2463.0
9.770367160 2520.0
9.792100040 2478.0
9.813832920 2415.0
9.835565800 2409.0
9.857298680 2423.0
9.879031560 2546.0
9.900764440 2523.0
9.922497320 2470.0
9.944230200 2469.0
9.965963080 2451.0
9.987695960 2481.0
10.009428840 2527.0
10.031161720 2486.0
10.052894600 2528.0
10.074627480 2382.0
10.096360360 2512.0
10.118093240 2442.0
10.139826120 2472.0
10.161559000 2489.0
10.183291880 2572.0
10.205024760 2324.0
10.226757640 2414.0
10.248490520 2533.0
10.270223400 2477.0
10.291956280 2534.0
10.313689160 2497.0
10.335422040 2526.0
10.357154920 2482.0
10.378887800 2423.0
10.400620680 2387.0
10.422353560 2383.0
10.444086440 2468.0
10.465819320 2515.0
10.487552200 2335.0
10.509285080 2456.0
10.531017960 2517.0
10.552750840 2501.0
10.574483720 2492.0
10.596216600 2488.0
10.617949480 2516.0
10.639682360 2434.0
10.661415240 2459.0
10.683148120 2448.0
10.704881000 2395.0
10.726613880 2470.0
10.748346760 2356.0
10.770079640 2474.0
10.791812520 2505.0
10.813545400 2467.0
10.835278280 2428.0
10.857011160 2465.0
10.878744040 2456.0
10.900476920 2532.0
10.922209800 2501.0
10.943942680 2504.0
10.965675560 2464.0
10.987408440 2426.0
11.009141320 2485.0
11.030874200 2597.0
11.052607080 2535.0
11.074339960 2502.0
11.096072840 2429.0
11.117805720 2505.0
11.139538600 2578.0
11.161271480 2498.0
11.183004360 2481.0
11.204737240 2496.0
11.226470120 2577.0
11.248203000 2514.0
11.269935880 2584.0
11.291668760 2602.0
11.313401640 2411.0
11.335134520 2508.0
11.356867400 2503.0
11.378600280 2591.0
11.400333160 2506.0
11.422066040 2481.0
11.443798920 2518.0
11.465531800 2458.0
11.487264680 2388.0
11.508997560 2557.0
11.530730440 2575.0
11.552463320 2530.0
11.574196200 2505.0
11.595929080 2484.0
11.617661960 2375.0
11.639394840 2503.0
11.661127720 2516.0
11.682860600 2422.0
11.704593480 2454.0
11.726326360 2518.0
11.748059240 2390.0
11.769792120 2566.0
11.791525000 2450.0
11.813257880 2482.0
11.834990760 2352.0
11.856723640 2417.0
11.878456520 2358.0
11.900189400 2468.0
11.921922280 2496.0
11.943655160 2391.0
11.965388040 2301.0
11.987120920 2482.0
12.008853800 2513.0
12.030586680 2441.0
12.052319560 2424.0
12.074052440 2430.0
12.095785320 2509.0
12.117518200 2551.0
12.139251080 2543.0
12.160983960 2372.0
12.182716840 2319.0
12.204449720 2440.0
12.226182600 2321.0
12.247915480 2348.0
12.269648360 2395.0
12.291381240 2383.0
12.313114120 2423.0
12.334847000 2377.0
12.356579880 2452.0
12.378312760 2467.0
12.400045640 2429.0
12.421778520 2480.0
12.443511400 2381.0
12.465244280 2401.0
12.486977160 2438.0
12.508710040 2434.0
12.530442920 2334.0
12.552175800 2429.0
12.573908680 2397.0
12.595641560 2290.0
12.617374440 2356.0
12.639107320 2341.0
12.660840200 2382.0
12.682573080 2484.0
12.704305960 2435.0
12.726038840 2389.0
12.747771720 2291.0
12.769504600 2367.0
12.791237480 2350.0
12.812970360 2498.0
12.834703240 2396.0
12.856436120 2427.0
12.878169000 2420.0
12.899901880 2320.0
12.921634760 2343.0
12.943367640 2377.0
12.965100520 2237.0
12.986833400 2458.0
13.008566280 2380.0
13.030299160 2356.0
13.052032040 2417.0
13.073764920 2398.0
13.095497800 2433.0
13.117230680 2336.0
13.138963560 2374.0
13.160696440 2392.0
13.182429320 2268.0
13.204162200 2263.0
13.225895080 2349.0
13.247627960 2315.0
13.269360840 2234.0
13.291093720 2353.0
13.312826600 2246.0
13.334559480 2273.0
13.356292360 2371.0
13.378025240 2324.0
13.399758120 2310.0
13.421491000 2223.0
13.443223880 2314.0
13.464956760 2335.0
13.486689640 2217.0
13.508422520 2262.0
13.530155400 2390.0
13.551888280 2331.0
13.573621160 2360.0
13.595354040 2259.0
13.617086920 2313.0
13.638819800 2295.0
13.660552680 2256.0
13.682285560 2248.0
13.704018440 2279.0
13.725751320 2349.0
13.747484200 2269.0
13.769217080 2266.0
13.790949960 2198.0
13.812682840 2228.0
13.834415720 2200.0
13.856148600 2280.0
13.877881480 2241.0
13.899614360 2136.0
13.921347240 2256.0
13.943080120 2356.0
13.964813000 2229.0
13.986545880 2348.0
14.008278760 2259.0
14.030011640 2257.0
14.051744520 2192.0
14.073477400 2107.0
14.095210280 2227.0
14.116943160 2288.0
14.138676040 2262.0
14.160408920 2193.0
14.182141800 2211.0
14.203874680 2087.0
14.225607560 2199.0
14.247340440 2163.0
14.269073320 2177.0
14.290806200 2126.0
14.312539080 2208.0
14.334271960 2218.0
14.356004840 2146.0
14.377737720 2216.0
14.399470600 2157.0
14.421203480 2051.0
14.442936360 2152.0
14.464669240 2191.0
14.486402120 2229.0
14.508135000 2164.0
14.529867880 2138.0
14.551600760 2180.0
14.573333640 2151.0
14.595066520 2164.0
14.616799400 2172.0
14.638532280 2117.0
14.660265160 2107.0
14.681998040 2105.0
14.703730920 2067.0
14.725463800 2077.0
14.747196680 2138.0
14.768929560 2090.0
14.790662440 2142.0
14.812395320 2043.0
14.834128200 2163.0
14.855861080 2196.0
14.877593960 2197.0
14.899326840 2089.0
14.921059720 2094.0
14.942792600 2093.0
14.964525480 2126.0
14.986258360 2120.0
15.007991240 2140.0
15.029724120 2070.0
15.051457000 2063.0
15.073189880 2019.0
15.094922760 2017.0
15.116655640 2077.0
15.138388520 2066.0
15.160121400 2051.0
15.181854280 2114.0
15.203587160 2050.0
15.225320040 1992.0
15.247052920 1975.0
15.268785800 2050.0
15.290518680 2016.0
15.312251560 2039.0
15.333984440 2058.0
15.355717320 2063.0
15.377450200 2051.0
15.399183080 2129.0
15.420915960 1971.0
15.442648840 2113.0
15.464381720 1925.0
15.486114600 2092.0
15.507847480 1975.0
15.529580360 2030.0
15.551313240 1952.0
15.573046120 1988.0
15.594779000 1965.0
15.616511880 1975.0
15.638244760 2004.0
15.659977640 2036.0
15.681710520 1992.0
15.703443400 1921.0
15.725176280 1976.0
15.746909160 1926.0
15.768642040 2077.0
15.790374920 1965.0
15.812107800 2045.0
15.833840680 1940.0
15.855573560 2029.0
15.877306440 2012.0
15.899039320 1868.0
15.920772200 1932.0
15.942505080 1886.0
15.964237960 1871.0
15.985970840 1948.0
16.007703720 1944.0
16.029436600 1883.0
16.051169480 1940.0
16.072902360 1973.0
16.094635240 1913.0
16.116368120 1897.0
16.138101000 1962.0
16.159833880 1885.0
16.181566760 1946.0
16.203299640 1884.0
16.225032520 1919.0
16.246765400 1931.0
16.268498280 1906.0
16.290231160 1873.0
16.311964040 1927.0
16.333696920 1787.0
16.355429800 1854.0
16.377162680 1877.0
16.398895560 1863.0
16.420628440 1904.0
16.442361320 1812.0
16.464094200 1942.0
16.485827080 1906.0
16.507559960 1881.0
16.529292840 1856.0
16.551025720 1837.0
16.572758600 1947.0
16.594491480 1767.0
16.616224360 1834.0
16.637957240 1836.0
16.659690120 1875.0
16.681423000 1863.0
16.703155880 1821.0
16.724888760 1731.0
16.746621640 1694.0
16.768354520 1785.0
16.790087400 1792.0
16.811820280 1793.0
16.833553160 1824.0
16.855286040 1684.0
16.877018920 1720.0
16.898751800 1718.0
16.920484680 1727.0
16.942217560 1714.0
16.963950440 1716.0
16.985683320 1835.0
17.007416200 1817.0
17.029149080 1823.0
17.050881960 1781.0
17.072614840 1763.0
17.094347720 1746.0
17.116080600 1702.0
17.137813480 1715.0
17.159546360 1751.0
17.181279240 1804.0
17.203012120 1760.0
17.224745000 1723.0
17.246477880 1687.0
17.268210760 1753.0
17.289943640 1775.0
17.311676520 1682.0
17.333409400 1665.0
17.355142280 1734.0
17.376875160 1619.0
17.398608040 1642.0
17.420340920 1692.0
17.442073800 1706.0
17.463806680 1664.0
17.485539560 1636.0
17.507272440 1646.0
17.529005320 1668.0
17.550738200 1703.0
17.572471080 1634.0
17.594203960 1657.0
17.615936840 1696.0
17.637669720 1659.0
17.659402600 1665.0
17.681135480 1614.0
17.702868360 1567.0
17.724601240 1637.0
17.746334120 1578.0
17.768067000 1553.0
17.789799880 1690.0
17.811532760 1692.0
17.833265640 1560.0
17.854998520 1648.0
17.876731400 1614.0
17.898464280 1567.0
17.920197160 1611.0
17.941930040 1599.0
17.963662920 1585.0
17.985395800 1611.0
18.007128680 1570.0
18.028861560 1641.0
18.050594440 1570.0
18.072327320 1583.0
18.094060200 1623.0
18.115793080 1567.0
18.137525960 1536.0
18.159258840 1624.0
18.180991720 1547.0
18.202724600 1528.0
18.224457480 1541.0
18.246190360 1610.0
18.267923240 1574.0
18.289656120 1542.0
18.311389000 1563.0
18.333121880 1594.0
18.354854760 1527.0
18.376587640 1556.0
18.398320520 1517.0
18.420053400 1450.0
18.441786280 1556.0
18.463519160 1538.0
18.485252040 1585.0
18.506984920 1600.0
18.528717800 1506.0
18.550450680 1592.0
18.572183560 1564.0
18.593916440 1447.0
18.615649320 1524.0
18.637382200 1446.0
18.659115080 1511.0
18.680847960 1546.0
18.702580840 1551.0
18.724313720 1467.0
18.746046600 1471.0
18.767779480 1481.0
18.789512360 1460.0
18.811245240 1427.0
18.832978120 1507.0
18.854711000 1431.0
18.876443880 1517.0
18.898176760 1546.0
18.919909640 1476.0
18.941642520 1582.0
18.963375400 1538.0
18.985108280 1454.0
19.006841160 1410.0
19.028574040 1444.0
19.050306920 1543.0
19.072039800 1500.0
19.093772680 1474.0
19.115505560 1455.0
19.137238440 1459.0
19.158971320 1433.0
19.180704200 1446.0
19.202437080 1457.0
19.224169960 1414.0
19.245902840 1429.0
19.267635720 1391.0
19.289368600 1473.0
19.311101480 1469.0
19.332834360 1388.0
19.354567240 1373.0
19.376300120 1402.0
19.398033000 1407.0
19.419765880 1454.0
19.441498760 1444.0
19.463231640 1499.0
19.484964520 1461.0
19.506697400 1374.0
19.528430280 1480.0
19.550163160 1391.0
19.571896040 1363.0
19.593628920 1411.0
19.615361800 1435.0
19.637094680 1418.0
19.658827560 1418.0
19.680560440 1410.0
19.702293320 1351.0
19.724026200 1455.0
19.745759080 1370.0
19.767491960 1354.0
19.789224840 1346.0
19.810957720 1384.0
19.832690600 1398.0
19.854423480 1390.0
19.876156360 1384.0
19.897889240 1318.0
19.919622120 1373.0
19.941355000 1372.0
19.963087880 1444.0
19.984820760 1399.0
20.006553640 1349.0
20.028286520 1474.0
20.050019400 1324.0
20.071752280 1357.0
20.093485160 1400.0
20.115218040 1389.0
20.136950920 1259.0
20.158683800 1351.0
20.180416680 1340.0
20.202149560 1316.0
20.223882440 1365.0
20.245615320 1343.0
20.267348200 1435.0
20.289081080 1411.0
20.310813960 1369.0
20.332546840 1300.0
20.354279720 1372.0
20.376012600 1286.0
20.397745480 1331.0
20.419478360 1302.0
20.441211240 1254.0
20.462944120 1254.0
20.484677000 1296.0
20.506409880 1305.0
20.528142760 1316.0
20.549875640 1366.0
20.571608520 1364.0
20.593341400 1293.0
20.615074280 1314.0
20.636807160 1317.0
20.658540040 1261.0
20.680272920 1318.0
20.702005800 1323.0
20.723738680 1328.0
20.745471560 1311.0
20.767204440 1288.0
20.788937320 1318.0
20.810670200 1281.0
20.832403080 1312.0
20.854135960 1245.0
20.875868840 1319.0
20.897601720 1294.0
20.919334600 1301.0
20.941067480 1261.0
20.962800360 1223.0
20.984533240 1276.0
21.006266120 1255.0
21.027999000 1259.0
21.049731880 1286.0
21.071464760 1276.0
21.093197640 1241.0
21.114930520 1186.0
21.136663400 1213.0
21.158396280 1237.0
21.180129160 1275.0
21.201862040 1177.0
21.223594920 1199.0
21.245327800 1169.0
21.267060680 1172.0
21.288793560 1265.0
21.310526440 1167.0
21.332259320 1240.0
21.353992200 1236.0
21.375725080 1177.0
21.397457960 1213.0
21.419190840 1232.0
21.440923720 1225.0
21.462656600 1214.0
21.484389480 1222.0
21.506122360 1153.0
21.527855240 1174.0
21.549588120 1234.0
21.571321000 1140.0
21.593053880 1172.0
21.614786760 1267.0
21.636519640 1226.0
21.658252520 1249.0
21.679985400 1154.0
21.701718280 1124.0
21.723451160 1078.0
21.745184040 1100.0
21.766916920 1112.0
21.788649800 1212.0
21.810382680 1159.0
21.832115560 1197.0
21.853848440 1128.0
21.875581320 1134.0
21.897314200 1132.0
21.919047080 1096.0
21.940779960 1146.0
21.962512840 1211.0
21.984245720 1166.0
22.005978600 1145.0
22.027711480 1097.0
22.049444360 1169.0
22.071177240 1116.0
22.092910120 1140.0
22.114643000 1118.0
22.136375880 1132.0
22.158108760 1079.0
22.179841640 1057.0
22.201574520 1131.0
22.223307400 1090.0
22.245040280 1060.0
22.266773160 1091.0
22.288506040 1085.0
22.310238920 1130.0
22.331971800 1162.0
22.353704680 1064.0
22.375437560 1103.0
22.397170440 1084.0
22.418903320 1114.0
22.440636200 1007.0
22.462369080 1078.0
22.484101960 1080.0
22.505834840 1054.0
22.527567720 1041.0
22.549300600 1078.0
22.571033480 1073.0
22.592766360 1066.0
22.614499240 1088.0
22.636232120 1044.0
22.657965000 1110.0
22.679697880 1099.0
22.701430760 1040.0
22.723163640 1010.0
22.744896520 1036.0
22.766629400 1039.0
22.788362280 1088.0
22.810095160 1045.0
22.831828040 1030.0
22.853560920 1039.0
22.875293800 1086.0
22.897026680 1070.0
22.918759560 1066.0
22.940492440 1117.0
22.962225320 1095.0
22.983958200 1056.0
23.005691080 1113.0
23.027423960 1033.0
23.049156840 1083.0
23.070889720 1060.0
23.092622600 1019.0
23.114355480 1046.0
23.136088360 1022.0
23.157821240 1016.0
23.179554120 978.0
23.201287000 1073.0
23.223019880 993.0
23.244752760 1004.0
23.266485640 975.0
23.288218520 1008.0
23.309951400 1037.0
23.331684280 1002.0
23.353417160 996.0
23.375150040 1015.0
23.396882920 997.0
23.418615800 973.0
23.440348680 1038.0
23.462081560 989.0
23.483814440 928.0
23.505547320 971.0
23.527280200 986.0
23.549013080 966.0
23.570745960 1014.0
23.592478840 975.0
23.614211720 939.0
23.635944600 947.0
23.657677480 974.0
23.679410360 963.0
23.701143240 900.0
23.722876120 959.0
23.744609000 1003.0
23.766341880 1009.0
23.788074760 971.0
23.809807640 942.0
23.831540520 1000.0
23.853273400 937.0
23.875006280 979.0
23.896739160 936.0
23.918472040 948.0
23.940204920 998.0
23.961937800 936.0
23.983670680 931.0
24.005403560 1019.0
24.027136440 897.0
24.048869320 985.0
24.070602200 959.0
24.092335080 996.0
24.114067960 948.0
24.135800840 922.0
24.157533720 941.0
24.179266600 939.0
24.200999480 972.0
24.222732360 918.0
24.244465240 963.0
24.266198120 941.0
24.287931000 936.0
24.309663880 930.0
24.331396760 963.0
24.353129640 866.0
24.374862520 866.0
24.396595400 880.0
24.418328280 866.0
24.440061160 907.0
24.461794040 926.0
24.483526920 879.0
24.505259800 911.0
24.526992680 897.0
24.548725560 884.0
24.570458440 893.0
24.592191320 952.0
24.613924200 908.0
24.635657080 940.0
24.657389960 899.0
24.679122840 907.0
24.700855720 921.0
24.722588600 926.0
24.744321480 921.0
24.766054360 902.0
24.787787240 877.0
24.809520120 867.0
24.831253000 928.0
24.852985880 931.0
24.874718760 907.0
24.896451640 896.0
24.918184520 921.0
24.939917400 966.0
24.961650280 919.0
24.983383160 943.0
25.005116040 912.0
25.026848920 847.0
25.048581800 891.0
25.070314680 957.0
25.092047560 886.0
25.113780440 925.0
25.135513320 998.0
25.157246200 949.0
25.178979080 971.0
25.200711960 1000.0
25.222444840 1097.0
25.244177720 1075.0
25.265910600 1118.0
25.287643480 1154.0
25.309376360 1285.0
25.331109240 1502.0
25.352842120 1635.0
25.374575000 1905.0
25.396307880 2267.0
25.418040760 2619.0
25.439773640 3033.0
25.461506520 3102.0
25.483239400 2966.0
25.504972280 2675.0
25.526705160 2424.0
25.548438040 2047.0
25.570170920 1791.0
25.591903800 1449.0
25.613636680 1218.0
25.635369560 1030.0
25.657102440 1102.0
25.678835320 990.0
25.700568200 988.0
25.722301080 1029.0
25.744033960 907.0
25.765766840 904.0
25.787499720 909.0
25.809232600 970.0
25.830965480 934.0
25.852698360 862.0
25.874431240 828.0
25.896164120 879.0
25.917897000 876.0
25.939629880 842.0
25.961362760 836.0
25.983095640 839.0
26.004828520 836.0
26.026561400 829.0
26.048294280 853.0
26.070027160 794.0
26.091760040 805.0
26.113492920 805.0
26.135225800 896.0
26.156958680 807.0
26.178691560 833.0
26.200424440 836.0
26.222157320 793.0
26.243890200 801.0
26.265623080 829.0
26.287355960 817.0
26.309088840 810.0
26.330821720 794.0
26.352554600 807.0
26.374287480 836.0
26.396020360 793.0
26.417753240 839.0
26.439486120 821.0
26.461219000 818.0
26.482951880 790.0
26.504684760 814.0
26.526417640 800.0
26.548150520 826.0
26.569883400 810.0
26.591616280 851.0
26.613349160 821.0
26.635082040 856.0
26.656814920 864.0
26.678547800 804.0
26.700280680 716.0
26.722013560 865.0
26.743746440 885.0
26.765479320 862.0
26.787212200 827.0
26.808945080 832.0
26.830677960 823.0
26.852410840 798.0
26.874143720 800.0
26.895876600 805.0
26.917609480 773.0
26.939342360 864.0
26.961075240 822.0
26.982808120 806.0
27.004541000 863.0
27.026273880 799.0
27.048006760 839.0
27.069739640 812.0
27.091472520 831.0
27.113205400 875.0
27.134938280 842.0
27.156671160 944.0
27.178404040 998.0
27.200136920 1099.0
27.221869800 1195.0
27.243602680 1340.0
27.265335560 1556.0
27.287068440 1965.0
27.308801320 2573.0
27.330534200 3388.0
27.352267080 4039.0
27.373999960 4354.0
27.395732840 4114.0
27.417465720 3488.0
27.439198600 2946.0
27.460931480 2201.0
27.482664360 1718.0
27.504397240 1270.0
27.526130120 1044.0
27.547863000 973.0
27.569595880 824.0
27.591328760 893.0
27.613061640 849.0
27.634794520 818.0
27.656527400 857.0
27.678260280 857.0
27.699993160 786.0
27.721726040 867.0
27.743458920 834.0
27.765191800 766.0
27.786924680 753.0
27.808657560 788.0
27.830390440 809.0
27.852123320 857.0
27.873856200 780.0
27.895589080 698.0
27.917321960 726.0
27.939054840 767.0
27.960787720 815.0
27.982520600 736.0
28.004253480 739.0
28.025986360 771.0
28.047719240 768.0
28.069452120 781.0
28.091185000 759.0
28.112917880 771.0
28.134650760 770.0
28.156383640 733.0
28.178116520 746.0
28.199849400 779.0
28.221582280 773.0
28.243315160 729.0
28.265048040 755.0
28.286780920 753.0
28.308513800 728.0
28.330246680 851.0
28.351979560 760.0
28.373712440 803.0
28.395445320 784.0
28.417178200 823.0
28.438911080 823.0
28.460643960 836.0
28.482376840 958.0
28.504109720 1017.0
28.525842600 1177.0
28.547575480 1404.0
28.569308360 1633.0
28.591041240 1744.0
28.612774120 1555.0
28.634507000 1196.0
28.656239880 938.0
28.677972760 838.0
28.699705640 828.0
28.721438520 814.0
28.743171400 729.0
28.764904280 740.0
28.786637160 773.0
28.808370040 811.0
28.830102920 715.0
28.851835800 751.0
28.873568680 736.0
28.895301560 709.0
28.917034440 768.0
28.938767320 708.0
28.960500200 737.0
28.982233080 708.0
29.003965960 720.0
29.025698840 745.0
29.047431720 777.0
29.069164600 749.0
29.090897480 741.0
29.112630360 736.0
29.134363240 731.0
29.156096120 748.0
29.177829000 738.0
29.199561880 727.0
29.221294760 772.0
29.243027640 733.0
29.264760520 770.0
29.286493400 773.0
29.308226280 749.0
29.329959160 762.0
29.351692040 684.0
29.373424920 756.0
29.395157800 774.0
29.416890680 770.0
29.438623560 707.0
29.460356440 718.0
29.482089320 713.0
29.503822200 714.0
29.525555080 758.0
29.547287960 750.0
29.569020840 720.0
29.590753720 705.0
29.612486600 719.0
29.634219480 688.0
29.655952360 682.0
29.677685240 721.0
29.699418120 752.0
29.721151000 750.0
29.742883880 736.0
29.764616760 710.0
29.786349640 759.0
29.808082520 715.0
29.829815400 735.0
29.851548280 695.0
29.873281160 736.0
29.895014040 698.0
29.916746920 757.0
29.938479800 722.0
29.960212680 755.0
29.981945560 743.0
30.003678440 672.0
30.025411320 727.0
30.047144200 671.0
30.068877080 772.0
30.090609960 723.0
30.112342840 718.0
30.134075720 716.0
30.155808600 741.0
30.177541480 745.0
30.199274360 778.0
30.221007240 753.0
30.242740120 690.0
30.264473000 732.0
30.286205880 771.0
30.307938760 753.0
30.329671640 772.0
30.351404520 755.0
30.373137400 753.0
30.394870280 756.0
30.416603160 825.0
30.438336040 789.0
30.460068920 843.0
30.481801800 857.0
30.503534680 814.0
30.525267560 875.0
30.547000440 933.0
30.568733320 1024.0
30.590466200 1085.0
30.612199080 1226.0
30.633931960 1320.0
30.655664840 1407.0
30.677397720 1405.0
30.699130600 1414.0
30.720863480 1450.0
30.742596360 1447.0
30.764329240 1443.0
30.786062120 1478.0
30.807795000 1452.0
30.829527880 1502.0
30.851260760 1418.0
30.872993640 1472.0
30.894726520 1498.0
30.916459400 1531.0
30.938192280 1485.0
30.959925160 1485.0
30.981658040 1527.0
31.003390920 1508.0
31.025123800 1572.0
31.046856680 1655.0
31.068589560 1581.0
31.090322440 1678.0
31.112055320 1656.0
31.133788200 1747.0
31.155521080 1829.0
31.177253960 2051.0
31.198986840 2196.0
31.220719720 2374.0
31.242452600 2646.0
31.264185480 2922.0
31.285918360 3101.0
31.307651240 3404.0
31.329384120 3687.0
31.351117000 3973.0
31.372849880 4196.0
31.394582760 4360.0
31.416315640 4670.0
31.438048520 4987.0
31.459781400 5466.0
31.481514280 6384.0
31.503247160 7866.0
31.524980040 10237.0
31.546712920 14045.0
31.568445800 19579.0
31.590178680 27233.0
31.611911560 40487.0
31.633644440 63212.0
31.655377320 101857.0
31.677110200 159878.0
31.698843080 223579.0
31.720575960 248965.0
31.742308840 203676.0
31.764041720 153035.0
31.785774600 137252.0
31.807507480 116475.0
31.829240360 73248.0
31.850973240 35999.0
31.872706120 17681.0
31.894439000 11109.0
31.916171880 8385.0
31.937904760 6950.0
31.959637640 6013.0
31.981370520 5286.0
32.003103400 4740.0
32.024836280 4458.0
32.046569160 3869.0
32.068302040 3432.0
32.090034920 3133.0
32.111767800 2741.0
32.133500680 2385.0
32.155233560 2141.0
32.176966440 1941.0
32.198699320 1796.0
32.220432200 1734.0
32.242165080 1659.0
32.263897960 1548.0
32.285630840 1572.0
32.307363720 1487.0
32.329096600 1490.0
32.350829480 1398.0
32.372562360 1426.0
32.394295240 1468.0
32.416028120 1407.0
32.437761000 1364.0
32.459493880 1332.0
32.481226760 1321.0
32.502959640 1328.0
32.524692520 1291.0
32.546425400 1322.0
32.568158280 1270.0
32.589891160 1311.0
32.611624040 1215.0
32.633356920 1171.0
32.655089800 1271.0
32.676822680 1207.0
32.698555560 1190.0
32.720288440 1199.0
32.742021320 1151.0
32.763754200 1173.0
32.785487080 1184.0
32.807219960 1162.0
32.828952840 1127.0
32.850685720 1123.0
32.872418600 1165.0
32.894151480 1110.0
32.915884360 1091.0
32.937617240 1156.0
32.959350120 1072.0
32.981083000 1099.0
33.002815880 1104.0
33.024548760 1052.0
33.046281640 1107.0
33.068014520 1045.0
33.089747400 1050.0
33.111480280 1081.0
33.133213160 1014.0
33.154946040 1029.0
33.176678920 1092.0
33.198411800 1001.0
33.220144680 1003.0
33.241877560 1053.0
33.263610440 988.0
33.285343320 1003.0
33.307076200 977.0
33.328809080 1010.0
33.350541960 965.0
33.372274840 946.0
33.394007720 972.0
33.415740600 934.0
33.437473480 983.0
33.459206360 978.0
33.480939240 965.0
33.502672120 1022.0
33.524405000 970.0
33.546137880 895.0
33.567870760 959.0
33.589603640 936.0
33.611336520 971.0
33.633069400 920.0
33.654802280 932.0
33.676535160 882.0
33.698268040 938.0
33.720000920 942.0
33.741733800 867.0
33.763466680 925.0
33.785199560 895.0
33.806932440 922.0
33.828665320 908.0
33.850398200 893.0
33.872131080 849.0
33.893863960 874.0
33.915596840 860.0
33.937329720 880.0
33.959062600 885.0
33.980795480 861.0
34.002528360 858.0
34.024261240 887.0
34.045994120 879.0
34.067727000 883.0
34.089459880 864.0
34.111192760 823.0
34.132925640 865.0
34.154658520 835.0
34.176391400 901.0
34.198124280 871.0
34.219857160 826.0
34.241590040 830.0
34.263322920 840.0
34.285055800 838.0
34.306788680 850.0
34.328521560 902.0
34.350254440 812.0
34.371987320 842.0
34.393720200 805.0
34.415453080 800.0
34.437185960 789.0
34.458918840 807.0
34.480651720 760.0
34.502384600 822.0
34.524117480 872.0
34.545850360 830.0
34.567583240 839.0
34.589316120 880.0
34.611049000 844.0
34.632781880 830.0
34.654514760 865.0
34.676247640 813.0
34.697980520 856.0
34.719713400 865.0
34.741446280 844.0
34.763179160 794.0
34.784912040 816.0
34.806644920 820.0
34.828377800 784.0
34.850110680 737.0
34.871843560 764.0
34.893576440 802.0
34.915309320 803.0
34.937042200 761.0
34.958775080 779.0
34.980507960 826.0
35.002240840 807.0
35.023973720 731.0
35.045706600 767.0
35.067439480 735.0
35.089172360 732.0
35.110905240 766.0
35.132638120 749.0
35.154371000 769.0
35.176103880 749.0
35.197836760 788.0
35.219569640 825.0
35.241302520 718.0
35.263035400 768.0
35.284768280 769.0
35.306501160 695.0
35.328234040 752.0
35.349966920 718.0
35.371699800 755.0
35.393432680 693.0
35.415165560 740.0
35.436898440 729.0
35.458631320 701.0
35.480364200 726.0
35.502097080 670.0
35.523829960 711.0
35.545562840 736.0
35.567295720 705.0
35.589028600 690.0
35.610761480 708.0
35.632494360 700.0
35.654227240 700.0
35.675960120 649.0
35.697693000 676.0
35.719425880 596.0
35.741158760 626.0
35.762891640 647.0
35.784624520 696.0
35.806357400 690.0
35.828090280 688.0
35.849823160 695.0
35.871556040 676.0
35.893288920 689.0
35.915021800 681.0
35.936754680 693.0
35.958487560 641.0
35.980220440 659.0
36.001953320 651.0
36.023686200 702.0
36.045419080 691.0
36.067151960 678.0
36.088884840 707.0
36.110617720 720.0
36.132350600 711.0
36.154083480 657.0
36.175816360 700.0
36.197549240 647.0
36.219282120 700.0
36.241015000 731.0
36.262747880 744.0
36.284480760 731.0
36.306213640 689.0
36.327946520 694.0
36.349679400 710.0
36.371412280 696.0
36.393145160 700.0
36.414878040 707.0
36.436610920 696.0
36.458343800 697.0
36.480076680 702.0
36.501809560 598.0
36.523542440 670.0
36.545275320 677.0
36.567008200 611.0
36.588741080 563.0
36.610473960 670.0
36.632206840 623.0
36.653939720 589.0
36.675672600 577.0
36.697405480 648.0
36.719138360 620.0
36.740871240 587.0
36.762604120 625.0
36.784337000 645.0
36.806069880 613.0
36.827802760 624.0
36.849535640 570.0
36.871268520 548.0
36.893001400 614.0
36.914734280 616.0
36.936467160 627.0
36.958200040 593.0
36.979932920 617.0
37.001665800 565.0
37.023398680 606.0
37.045131560 642.0
37.066864440 591.0
37.088597320 588.0
37.110330200 596.0
37.132063080 551.0
37.153795960 601.0
37.175528840 572.0
37.197261720 574.0
37.218994600 591.0
37.240727480 606.0
37.262460360 589.0
37.284193240 546.0
37.305926120 599.0
37.327659000 625.0
37.349391880 563.0
37.371124760 567.0
37.392857640 552.0
37.414590520 561.0
37.436323400 582.0
37.458056280 548.0
37.479789160 566.0
37.501522040 544.0
37.523254920 551.0
37.544987800 586.0
37.566720680 570.0
37.588453560 558.0
37.610186440 531.0
37.631919320 551.0
37.653652200 554.0
37.675385080 599.0
37.697117960 560.0
37.718850840 559.0
37.740583720 550.0
37.762316600 545.0
37.784049480 522.0
37.805782360 546.0
37.827515240 531.0
37.849248120 543.0
37.870981000 533.0
37.892713880 540.0
37.914446760 570.0
37.936179640 536.0
37.957912520 496.0
37.979645400 543.0
38.001378280 531.0
38.023111160 501.0
38.044844040 543.0
38.066576920 529.0
38.088309800 602.0
38.110042680 514.0
38.131775560 508.0
38.153508440 517.0
38.175241320 527.0
38.196974200 494.0
38.218707080 482.0
38.240439960 557.0
38.262172840 491.0
38.283905720 513.0
38.305638600 592.0
38.327371480 526.0
38.349104360 520.0
38.370837240 531.0
38.392570120 577.0
38.414303000 541.0
38.436035880 517.0
38.457768760 524.0
38.479501640 540.0
38.501234520 541.0
38.522967400 563.0
38.544700280 602.0
38.566433160 653.0
38.588166040 589.0
38.609898920 621.0
38.631631800 635.0
38.653364680 701.0
38.675097560 724.0
38.696830440 683.0
38.718563320 675.0
38.740296200 683.0
38.762029080 625.0
38.783761960 589.0
38.805494840 632.0
38.827227720 579.0
38.848960600 610.0
38.870693480 534.0
38.892426360 512.0
38.914159240 484.0
38.935892120 548.0
38.957625000 502.0
38.979357880 473.0
39.001090760 507.0
39.022823640 479.0
39.044556520 500.0
39.066289400 524.0
39.088022280 515.0
39.109755160 501.0
39.131488040 489.0
39.153220920 503.0
39.174953800 463.0
39.196686680 445.0
39.218419560 471.0
39.240152440 529.0
39.261885320 514.0
39.283618200 499.0
39.305351080 465.0
39.327083960 492.0
39.348816840 484.0
39.370549720 471.0
39.392282600 490.0
39.414015480 501.0
39.435748360 492.0
39.457481240 483.0
39.479214120 480.0
39.500947000 484.0
39.522679880 467.0
39.544412760 425.0
39.566145640 440.0
39.587878520 477.0
39.609611400 468.0
39.631344280 487.0
39.653077160 445.0
39.674810040 470.0
39.696542920 498.0
39.718275800 476.0
39.740008680 475.0
39.761741560 468.0
39.783474440 458.0
39.805207320 437.0
39.826940200 474.0
39.848673080 491.0
39.870405960 490.0
39.892138840 452.0
39.913871720 461.0
39.935604600 490.0
39.957337480 464.0
39.979070360 487.0
40.000803240 485.0
40.022536120 467.0
40.044269000 426.0
40.066001880 440.0
40.087734760 472.0
40.109467640 454.0
40.131200520 467.0
40.152933400 442.0
40.174666280 462.0
40.196399160 473.0
40.218132040 540.0
40.239864920 428.0
40.261597800 431.0
40.283330680 433.0
40.305063560 481.0
40.326796440 459.0
40.348529320 492.0
40.370262200 503.0
40.391995080 414.0
40.413727960 455.0
40.435460840 470.0
40.457193720 479.0
40.478926600 469.0
40.500659480 435.0
40.522392360 489.0
40.544125240 511.0
40.565858120 448.0
40.587591000 466.0
40.609323880 457.0
40.631056760 519.0
40.652789640 450.0
40.674522520 481.0
40.696255400 484.0
40.717988280 459.0
40.739721160 549.0
40.761454040 555.0
40.783186920 605.0
40.804919800 697.0
40.826652680 649.0
40.848385560 762.0
40.870118440 681.0
40.891851320 640.0
40.913584200 632.0
40.935317080 582.0
40.957049960 527.0
40.978782840 498.0
41.000515720 514.0
41.022248600 491.0
41.043981480 471.0
41.065714360 508.0
41.087447240 449.0
41.109180120 462.0
41.130913000 468.0
41.152645880 433.0
41.174378760 425.0
41.196111640 472.0
41.217844520 466.0
41.239577400 483.0
41.261310280 506.0
41.283043160 513.0
41.304776040 527.0
41.326508920 472.0
41.348241800 519.0
41.369974680 513.0
41.391707560 503.0
41.413440440 450.0
41.435173320 458.0
41.456906200 460.0
41.478639080 489.0
41.500371960 467.0
41.522104840 461.0
41.543837720 444.0
41.565570600 444.0
41.587303480 430.0
41.609036360 452.0
41.630769240 468.0
41.652502120 425.0
41.674235000 443.0
41.695967880 421.0
41.717700760 452.0
41.739433640 422.0
41.761166520 414.0
41.782899400 374.0
41.804632280 411.0
41.826365160 434.0
41.848098040 411.0
41.869830920 388.0
41.891563800 433.0
41.913296680 391.0
41.935029560 421.0
41.956762440 394.0
41.978495320 387.0
42.000228200 425.0
42.021961080 430.0
42.043693960 472.0
42.065426840 384.0
42.087159720 424.0
42.108892600 436.0
42.130625480 431.0
42.152358360 422.0
42.174091240 415.0
42.195824120 439.0
42.217557000 420.0
42.239289880 412.0
42.261022760 398.0
42.282755640 403.0
42.304488520 391.0
42.326221400 395.0
42.347954280 424.0
42.369687160 409.0
42.391420040 412.0
42.413152920 436.0
42.434885800 413.0
42.456618680 401.0
42.478351560 401.0
42.500084440 398.0
42.521817320 389.0
42.543550200 403.0
42.565283080 386.0
42.587015960 377.0
42.608748840 391.0
42.630481720 402.0
42.652214600 390.0
42.673947480 399.0
42.695680360 437.0
42.717413240 415.0
42.739146120 420.0
42.760879000 367.0
42.782611880 415.0
42.804344760 359.0
42.826077640 419.0
42.847810520 422.0
42.869543400 409.0
42.891276280 441.0
42.913009160 426.0
42.934742040 455.0
42.956474920 431.0
42.978207800 417.0
42.999940680 403.0
43.021673560 398.0
43.043406440 430.0
43.065139320 413.0
43.086872200 378.0
43.108605080 424.0
43.130337960 420.0
43.152070840 400.0
43.173803720 419.0
43.195536600 401.0
43.217269480 437.0
43.239002360 410.0
43.260735240 431.0
43.282468120 487.0
43.304201000 479.0
43.325933880 476.0
43.347666760 530.0
43.369399640 495.0
43.391132520 474.0
43.412865400 454.0
43.434598280 435.0
43.456331160 468.0
43.478064040 478.0
43.499796920 440.0
43.521529800 399.0
43.543262680 406.0
43.564995560 408.0
43.586728440 411.0
43.608461320 411.0
43.630194200 390.0
43.651927080 414.0
43.673659960 384.0
43.695392840 397.0
43.717125720 415.0
43.738858600 390.0
43.760591480 409.0
43.782324360 441.0
43.804057240 439.0
43.825790120 435.0
43.847523000 403.0
43.869255880 488.0
43.890988760 471.0
43.912721640 467.0
43.934454520 450.0
43.956187400 439.0
43.977920280 459.0
43.999653160 476.0
44.021386040 426.0
44.043118920 446.0
44.064851800 463.0
44.086584680 476.0
44.108317560 473.0
44.130050440 472.0
44.151783320 456.0
44.173516200 463.0
44.195249080 478.0
44.216981960 442.0
44.238714840 461.0
44.260447720 442.0
44.282180600 445.0
44.303913480 470.0
44.325646360 466.0
44.347379240 445.0
44.369112120 432.0
44.390845000 466.0
44.412577880 466.0
44.434310760 480.0
44.456043640 411.0
44.477776520 435.0
44.499509400 477.0
44.521242280 453.0
44.542975160 461.0
44.564708040 423.0
44.586440920 486.0
44.608173800 491.0
44.629906680 490.0
44.651639560 459.0
44.673372440 472.0
44.695105320 464.0
44.716838200 458.0
44.738571080 431.0
44.760303960 482.0
44.782036840 494.0
44.803769720 448.0
44.825502600 482.0
44.847235480 498.0
44.868968360 485.0
44.890701240 526.0
44.912434120 561.0
44.934167000 557.0
44.955899880 572.0
44.977632760 618.0
44.999365640 642.0
45.021098520 691.0
45.042831400 646.0
45.064564280 789.0
45.086297160 724.0
45.108030040 714.0
45.129762920 886.0
45.151495800 968.0
45.173228680 983.0
45.194961560 1082.0
45.216694440 1207.0
45.238427320 1399.0
45.260160200 1533.0
45.281893080 1878.0
45.303625960 2462.0
45.325358840 3565.0
45.347091720 5120.0
45.368824600 7903.0
45.390557480 11600.0
45.412290360 17178.0
45.434023240 20776.0
45.455756120 20858.0
45.477489000 17474.0
45.499221880 14137.0
45.520954760 12187.0
45.542687640 12439.0
45.564420520 11882.0
45.586153400 10060.0
45.607886280 7076.0
45.629619160 4704.0
45.651352040 3041.0
45.673084920 2289.0
45.694817800 1729.0
45.716550680 1421.0
45.738283560 1232.0
45.760016440 1049.0
45.781749320 879.0
45.803482200 899.0
45.825215080 764.0
45.846947960 753.0
45.868680840 667.0
45.890413720 623.0
45.912146600 590.0
45.933879480 579.0
45.955612360 556.0
45.977345240 547.0
45.999078120 465.0
46.020811000 491.0
46.042543880 463.0
46.064276760 502.0
46.086009640 461.0
46.107742520 458.0
46.129475400 460.0
46.151208280 463.0
46.172941160 447.0
46.194674040 428.0
46.216406920 413.0
46.238139800 426.0
46.259872680 419.0
46.281605560 477.0
46.303338440 428.0
46.325071320 436.0
46.346804200 460.0
46.368537080 402.0
46.390269960 434.0
46.412002840 408.0
46.433735720 445.0
46.455468600 403.0
46.477201480 393.0
46.498934360 431.0
46.520667240 415.0
46.542400120 415.0
46.564133000 412.0
46.585865880 410.0
46.607598760 417.0
46.629331640 396.0
46.651064520 383.0
46.672797400 431.0
46.694530280 369.0
46.716263160 405.0
46.737996040 421.0
46.759728920 367.0
46.781461800 415.0
46.803194680 415.0
46.824927560 437.0
46.846660440 397.0
46.868393320 376.0
46.890126200 416.0
46.911859080 399.0
46.933591960 430.0
46.955324840 416.0
46.977057720 374.0
46.998790600 386.0
47.020523480 388.0
47.042256360 370.0
47.063989240 398.0
47.085722120 388.0
47.107455000 381.0
47.129187880 416.0
47.150920760 389.0
47.172653640 382.0
47.194386520 404.0
47.216119400 370.0
47.237852280 390.0
47.259585160 379.0
47.281318040 384.0
47.303050920 368.0
47.324783800 373.0
47.346516680 373.0
47.368249560 396.0
47.389982440 349.0
47.411715320 364.0
47.433448200 380.0
47.455181080 387.0
47.476913960 357.0
47.498646840 367.0
47.520379720 336.0
47.542112600 356.0
47.563845480 403.0
47.585578360 378.0
47.607311240 361.0
47.629044120 368.0
47.650777000 372.0
47.672509880 376.0
47.694242760 381.0
47.715975640 370.0
47.737708520 359.0
47.759441400 331.0
47.781174280 382.0
47.802907160 325.0
47.824640040 375.0
47.846372920 373.0
47.868105800 355.0
47.889838680 337.0
47.911571560 341.0
47.933304440 348.0
47.955037320 388.0
47.976770200 362.0
47.998503080 403.0
48.020235960 333.0
48.041968840 349.0
48.063701720 356.0
48.085434600 337.0
48.107167480 345.0
48.128900360 386.0
48.150633240 335.0
48.172366120 335.0
48.194099000 352.0
48.215831880 379.0
48.237564760 363.0
48.259297640 396.0
48.281030520 363.0
48.302763400 343.0
48.324496280 366.0
48.346229160 342.0
48.367962040 390.0
48.389694920 373.0
48.411427800 340.0
48.433160680 390.0
48.454893560 392.0
48.476626440 365.0
48.498359320 366.0
48.520092200 347.0
48.541825080 376.0
48.563557960 381.0
48.585290840 393.0
48.607023720 426.0
48.628756600 431.0
48.650489480 425.0
48.672222360 422.0
48.693955240 470.0
48.715688120 493.0
48.737421000 480.0
48.759153880 415.0
48.780886760 450.0
48.802619640 386.0
48.824352520 415.0
48.846085400 436.0
48.867818280 388.0
48.889551160 370.0
48.911284040 345.0
48.933016920 383.0
48.954749800 363.0
48.976482680 374.0
48.998215560 347.0
49.019948440 331.0
49.041681320 334.0
49.063414200 372.0
49.085147080 396.0
49.106879960 336.0
49.128612840 386.0
49.150345720 333.0
49.172078600 329.0
49.193811480 361.0
49.215544360 371.0
49.237277240 361.0
49.259010120 363.0
49.280743000 362.0
49.302475880 353.0
49.324208760 368.0
49.345941640 377.0
49.367674520 329.0
49.389407400 371.0
49.411140280 327.0
49.432873160 333.0
49.454606040 297.0
49.476338920 323.0
49.498071800 308.0
49.519804680 304.0
49.541537560 316.0
49.563270440 346.0
49.585003320 352.0
49.606736200 330.0
49.628469080 340.0
49.650201960 338.0
49.671934840 364.0
49.693667720 343.0
49.715400600 318.0
49.737133480 321.0
49.758866360 325.0
49.780599240 326.0
49.802332120 326.0
49.824065000 333.0
49.845797880 321.0
49.867530760 310.0
49.889263640 305.0
49.910996520 329.0
49.932729400 309.0
49.954462280 311.0
49.976195160 320.0
49.997928040 348.0
50.019660920 306.0
50.041393800 318.0
50.063126680 275.0
50.084859560 305.0
50.106592440 366.0
50.128325320 310.0
50.150058200 319.0
50.171791080 296.0
50.193523960 332.0
50.215256840 298.0
50.236989720 321.0
50.258722600 334.0
50.280455480 273.0
50.302188360 294.0
50.323921240 304.0
50.345654120 349.0
50.367387000 318.0
50.389119880 338.0
50.410852760 301.0
50.432585640 282.0
50.454318520 347.0
50.476051400 308.0
50.497784280 323.0
50.519517160 327.0
50.541250040 289.0
50.562982920 358.0
50.584715800 310.0
50.606448680 315.0
50.628181560 324.0
50.649914440 322.0
50.671647320 342.0
50.693380200 326.0
50.715113080 334.0
50.736845960 349.0
50.758578840 321.0
50.780311720 315.0
50.802044600 305.0
50.823777480 303.0
50.845510360 295.0
50.867243240 291.0
50.888976120 304.0
50.910709000 292.0
50.932441880 325.0
50.954174760 318.0
50.975907640 290.0
50.997640520 293.0
51.019373400 273.0
51.041106280 279.0
51.062839160 269.0
51.084572040 337.0
51.106304920 336.0
51.128037800 337.0
51.149770680 265.0
51.171503560 296.0
51.193236440 312.0
51.214969320 270.0
51.236702200 292.0
51.258435080 304.0
51.280167960 311.0
51.301900840 293.0
51.323633720 302.0
51.345366600 276.0
51.367099480 295.0
51.388832360 259.0
51.410565240 291.0
51.432298120 337.0
51.454031000 288.0
51.475763880 320.0
51.497496760 318.0
51.519229640 300.0
51.540962520 275.0
51.562695400 303.0
51.584428280 294.0
51.606161160 298.0
51.627894040 292.0
51.649626920 269.0
51.671359800 292.0
51.693092680 319.0
51.714825560 315.0
51.736558440 285.0
51.758291320 301.0
51.780024200 323.0
51.801757080 316.0
51.823489960 310.0
51.845222840 282.0
51.866955720 302.0
51.888688600 319.0
51.910421480 300.0
51.932154360 314.0
51.953887240 310.0
51.975620120 304.0
51.997353000 306.0
52.019085880 274.0
52.040818760 311.0
52.062551640 313.0
52.084284520 283.0
52.106017400 282.0
52.127750280 320.0
52.149483160 314.0
52.171216040 376.0
52.192948920 365.0
52.214681800 383.0
52.236414680 421.0
52.258147560 432.0
52.279880440 396.0
52.301613320 443.0
52.323346200 401.0
52.345079080 397.0
52.366811960 394.0
52.388544840 392.0
52.410277720 372.0
52.432010600 372.0
52.453743480 319.0
52.475476360 338.0
52.497209240 350.0
52.518942120 331.0
52.540675000 316.0
52.562407880 303.0
52.584140760 293.0
52.605873640 306.0
52.627606520 330.0
52.649339400 263.0
52.671072280 344.0
52.692805160 312.0
52.714538040 290.0
52.736270920 303.0
52.758003800 285.0
52.779736680 288.0
52.801469560 270.0
52.823202440 293.0
52.844935320 286.0
52.866668200 289.0
52.888401080 295.0
52.910133960 290.0
52.931866840 295.0
52.953599720 320.0
52.975332600 269.0
52.997065480 267.0
53.018798360 291.0
53.040531240 267.0
53.062264120 261.0
53.083997000 238.0
53.105729880 239.0
53.127462760 276.0
53.149195640 262.0
53.170928520 244.0
53.192661400 281.0
53.214394280 285.0
53.236127160 259.0
53.257860040 292.0
53.279592920 272.0
53.301325800 288.0
53.323058680 281.0
53.344791560 237.0
53.366524440 286.0
53.388257320 300.0
53.409990200 315.0
53.431723080 276.0
53.453455960 272.0
53.475188840 297.0
53.496921720 295.0
53.518654600 288.0
53.540387480 285.0
53.562120360 308.0
53.583853240 310.0
53.605586120 323.0
53.627319000 320.0
53.649051880 333.0
53.670784760 337.0
53.692517640 304.0
53.714250520 337.0
53.735983400 401.0
53.757716280 425.0
53.779449160 527.0
53.801182040 618.0
53.822914920 833.0
53.844647800 1043.0
53.866380680 1186.0
53.888113560 1078.0
53.909846440 867.0
53.931579320 707.0
53.953312200 644.0
53.975045080 676.0
53.996777960 738.0
54.018510840 702.0
54.040243720 630.0
54.061976600 590.0
54.083709480 412.0
54.105442360 363.0
54.127175240 342.0
54.148908120 310.0
54.170641000 307.0
54.192373880 317.0
54.214106760 291.0
54.235839640 301.0
54.257572520 314.0
54.279305400 323.0
54.301038280 316.0
54.322771160 337.0
54.344504040 290.0
54.366236920 279.0
54.387969800 288.0
54.409702680 268.0
54.431435560 292.0
54.453168440 318.0
54.474901320 287.0
54.496634200 281.0
54.518367080 279.0
54.540099960 265.0
54.561832840 264.0
54.583565720 250.0
54.605298600 302.0
54.627031480 320.0
54.648764360 301.0
54.670497240 303.0
54.692230120 275.0
54.713963000 275.0
54.735695880 280.0
54.757428760 303.0
54.779161640 310.0
54.800894520 266.0
54.822627400 272.0
54.844360280 293.0
54.866093160 310.0
54.887826040 274.0
54.909558920 313.0
54.931291800 290.0
54.953024680 256.0
54.974757560 241.0
54.996490440 294.0
55.018223320 278.0
55.039956200 294.0
55.061689080 307.0
55.083421960 298.0
55.105154840 294.0
55.126887720 261.0
55.148620600 311.0
55.170353480 285.0
55.192086360 267.0
55.213819240 263.0
55.235552120 270.0
55.257285000 258.0
55.279017880 288.0
55.300750760 314.0
55.322483640 266.0
55.344216520 292.0
55.365949400 271.0
55.387682280 282.0
55.409415160 311.0
55.431148040 315.0
55.452880920 295.0
55.474613800 281.0
55.496346680 318.0
55.518079560 291.0
55.539812440 288.0
55.561545320 303.0
55.583278200 324.0
55.605011080 338.0
55.626743960 350.0
55.648476840 326.0
55.670209720 376.0
55.691942600 380.0
55.713675480 399.0
55.735408360 402.0
55.757141240 398.0
55.778874120 418.0
55.800607000 417.0
55.822339880 344.0
55.844072760 400.0
55.865805640 386.0
55.887538520 369.0
55.909271400 386.0
55.931004280 372.0
55.952737160 371.0
55.974470040 348.0
55.996202920 355.0
56.017935800 398.0
56.039668680 371.0
56.061401560 373.0
56.083134440 384.0
56.104867320 373.0
56.126600200 441.0
56.148333080 398.0
56.170065960 476.0
56.191798840 422.0
56.213531720 530.0
56.235264600 518.0
56.256997480 548.0
56.278730360 609.0
56.300463240 669.0
56.322196120 776.0
56.343929000 1087.0
56.365661880 1487.0
56.387394760 2111.0
56.409127640 3133.0
56.430860520 4326.0
56.452593400 5539.0
56.474326280 5656.0
56.496059160 4789.0
56.517792040 3626.0
56.539524920 2905.0
56.561257800 2624.0
56.582990680 2931.0
56.604723560 3349.0
56.626456440 3159.0
56.648189320 2607.0
56.669922200 1968.0
56.691655080 1371.0
56.713387960 1076.0
56.735120840 838.0
56.756853720 664.0
56.778586600 588.0
56.800319480 485.0
56.822052360 428.0
56.843785240 446.0
56.865518120 408.0
56.887251000 371.0
56.908983880 353.0
56.930716760 387.0
56.952449640 339.0
56.974182520 334.0
56.995915400 374.0
57.017648280 279.0
57.039381160 323.0
57.061114040 292.0
57.082846920 278.0
57.104579800 298.0
57.126312680 283.0
57.148045560 288.0
57.169778440 289.0
57.191511320 324.0
57.213244200 288.0
57.234977080 279.0
57.256709960 284.0
57.278442840 258.0
57.300175720 282.0
57.321908600 230.0
57.343641480 270.0
57.365374360 258.0
57.387107240 272.0
57.408840120 263.0
57.430573000 286.0
57.452305880 285.0
57.474038760 273.0
57.495771640 259.0
57.517504520 264.0
57.539237400 280.0
57.560970280 244.0
57.582703160 272.0
57.604436040 247.0
57.626168920 272.0
57.647901800 244.0
57.669634680 266.0
57.691367560 283.0
57.713100440 271.0
57.734833320 300.0
57.756566200 281.0
57.778299080 269.0
57.800031960 283.0
57.821764840 267.0
57.843497720 275.0
57.865230600 298.0
57.886963480 251.0
57.908696360 283.0
57.930429240 278.0
57.952162120 279.0
57.973895000 266.0
57.995627880 304.0
58.017360760 286.0
58.039093640 284.0
58.060826520 263.0
58.082559400 287.0
58.104292280 280.0
58.126025160 250.0
58.147758040 246.0
58.169490920 284.0
58.191223800 280.0
58.212956680 246.0
58.234689560 264.0
58.256422440 233.0
58.278155320 257.0
58.299888200 241.0
58.321621080 246.0
58.343353960 257.0
58.365086840 219.0
58.386819720 265.0
58.408552600 232.0
58.430285480 224.0
58.452018360 233.0
58.473751240 226.0
58.495484120 235.0
58.517217000 287.0
58.538949880 242.0
58.560682760 240.0
58.582415640 260.0
58.604148520 263.0
58.625881400 231.0
58.647614280 237.0
58.669347160 247.0
58.691080040 243.0
58.712812920 238.0
58.734545800 249.0
58.756278680 250.0
58.778011560 249.0
58.799744440 234.0
58.821477320 239.0
58.843210200 235.0
58.864943080 304.0
58.886675960 284.0
58.908408840 272.0
58.930141720 260.0
58.951874600 291.0
58.973607480 305.0
58.995340360 296.0
59.017073240 297.0
59.038806120 269.0
59.060539000 302.0
59.082271880 273.0
59.104004760 283.0
59.125737640 318.0
59.147470520 313.0
59.169203400 325.0
59.190936280 285.0
59.212669160 312.0
59.234402040 298.0
59.256134920 271.0
59.277867800 265.0
59.299600680 272.0
59.321333560 263.0
59.343066440 267.0
59.364799320 239.0
59.386532200 243.0
59.408265080 224.0
59.429997960 232.0
59.451730840 244.0
59.473463720 277.0
59.495196600 228.0
59.516929480 242.0
59.538662360 230.0
59.560395240 235.0
59.582128120 224.0
59.603861000 248.0
59.625593880 227.0
59.647326760 240.0
59.669059640 264.0
59.690792520 243.0
59.712525400 241.0
59.734258280 218.0
59.755991160 242.0
59.777724040 224.0
59.799456920 241.0
59.821189800 217.0
59.842922680 209.0
59.864655560 232.0
59.886388440 213.0
59.908121320 242.0
59.929854200 226.0
59.951587080 233.0
59.973319960 220.0
59.995052840 235.0
60.016785720 264.0
60.038518600 257.0
60.060251480 202.0
60.081984360 247.0
60.103717240 246.0
60.125450120 202.0
60.147183000 231.0
60.168915880 235.0
60.190648760 231.0
60.212381640 228.0
60.234114520 229.0
60.255847400 257.0
60.277580280 244.0
60.299313160 222.0
60.321046040 209.0
60.342778920 215.0
60.364511800 210.0
60.386244680 223.0
60.407977560 233.0
60.429710440 225.0
60.451443320 220.0
60.473176200 249.0
60.494909080 236.0
60.516641960 245.0
60.538374840 230.0
60.560107720 230.0
60.581840600 257.0
60.603573480 241.0
60.625306360 257.0
60.647039240 259.0
60.668772120 304.0
60.690505000 237.0
60.712237880 271.0
60.733970760 237.0
60.755703640 232.0
60.777436520 241.0
60.799169400 249.0
60.820902280 250.0
60.842635160 275.0
60.864368040 232.0
60.886100920 237.0
60.907833800 232.0
60.929566680 241.0
60.951299560 259.0
60.973032440 242.0
60.994765320 217.0
61.016498200 262.0
61.038231080 283.0
61.059963960 249.0
61.081696840 242.0
61.103429720 265.0
61.125162600 245.0
61.146895480 230.0
61.168628360 267.0
61.190361240 262.0
61.212094120 237.0
61.233827000 242.0
61.255559880 211.0
61.277292760 206.0
61.299025640 233.0
61.320758520 231.0
61.342491400 239.0
61.364224280 251.0
61.385957160 228.0
61.407690040 260.0
61.429422920 242.0
61.451155800 212.0
61.472888680 228.0
61.494621560 224.0
61.516354440 227.0
61.538087320 257.0
61.559820200 225.0
61.581553080 227.0
61.603285960 272.0
61.625018840 230.0
61.646751720 235.0
61.668484600 213.0
61.690217480 271.0
61.711950360 266.0
61.733683240 241.0
61.755416120 204.0
61.777149000 237.0
61.798881880 227.0
61.820614760 214.0
61.842347640 267.0
61.864080520 267.0
61.885813400 209.0
61.907546280 249.0
61.929279160 213.0
61.951012040 213.0
61.972744920 257.0
61.994477800 198.0
62.016210680 241.0
62.037943560 216.0
62.059676440 242.0
62.081409320 234.0
62.103142200 224.0
62.124875080 238.0
62.146607960 221.0
62.168340840 249.0
62.190073720 267.0
62.211806600 246.0
62.233539480 276.0
62.255272360 241.0
62.277005240 288.0
62.298738120 294.0
62.320471000 285.0
62.342203880 305.0
62.363936760 238.0
62.385669640 238.0
62.407402520 285.0
62.429135400 262.0
62.450868280 238.0
62.472601160 250.0
62.494334040 203.0
62.516066920 241.0
62.537799800 235.0
62.559532680 241.0
62.581265560 260.0
62.602998440 203.0
62.624731320 234.0
62.646464200 215.0
62.668197080 235.0
62.689929960 242.0
62.711662840 211.0
62.733395720 242.0
62.755128600 231.0
62.776861480 226.0
62.798594360 258.0
62.820327240 241.0
62.842060120 232.0
62.863793000 220.0
62.885525880 215.0
62.907258760 211.0
62.928991640 235.0
62.950724520 226.0
62.972457400 230.0
62.994190280 208.0
63.015923160 245.0
63.037656040 216.0
63.059388920 263.0
63.081121800 220.0
63.102854680 233.0
63.124587560 217.0
63.146320440 218.0
63.168053320 212.0
63.189786200 209.0
63.211519080 217.0
63.233251960 225.0
63.254984840 220.0
63.276717720 272.0
63.298450600 214.0
63.320183480 234.0
63.341916360 189.0
63.363649240 249.0
63.385382120 232.0
63.407115000 203.0
63.428847880 250.0
63.450580760 219.0
63.472313640 223.0
63.494046520 229.0
63.515779400 237.0
63.537512280 250.0
63.559245160 260.0
63.580978040 244.0
63.602710920 238.0
63.624443800 236.0
63.646176680 207.0
63.667909560 222.0
63.689642440 229.0
63.711375320 238.0
63.733108200 239.0
63.754841080 239.0
63.776573960 278.0
63.798306840 240.0
63.820039720 267.0
63.841772600 236.0
63.863505480 220.0
63.885238360 243.0
63.906971240 267.0
63.928704120 247.0
63.950437000 222.0
63.972169880 238.0
63.993902760 284.0
64.015635640 284.0
64.037368520 297.0
64.059101400 229.0
64.080834280 233.0
64.102567160 263.0
64.124300040 230.0
64.146032920 249.0
64.167765800 272.0
64.189498680 266.0
64.211231560 279.0
64.232964440 290.0
64.254697320 274.0
64.276430200 286.0
64.298163080 264.0
64.319895960 242.0
64.341628840 270.0
64.363361720 264.0
64.385094600 266.0
64.406827480 263.0
64.428560360 265.0
64.450293240 276.0
64.472026120 277.0
64.493759000 279.0
64.515491880 245.0
64.537224760 250.0
64.558957640 278.0
64.580690520 281.0
64.602423400 271.0
64.624156280 248.0
64.645889160 249.0
64.667622040 269.0
64.689354920 242.0
64.711087800 261.0
64.732820680 302.0
64.754553560 284.0
64.776286440 274.0
64.798019320 231.0
64.819752200 259.0
64.841485080 229.0
64.863217960 269.0
64.884950840 283.0
64.906683720 283.0
64.928416600 268.0
64.950149480 260.0
64.971882360 283.0
64.993615240 274.0
65.015348120 281.0
65.037081000 242.0
65.058813880 287.0
65.080546760 288.0
65.102279640 280.0
65.124012520 293.0
65.145745400 293.0
65.167478280 276.0
65.189211160 316.0
65.210944040 291.0
65.232676920 240.0
65.254409800 304.0
65.276142680 263.0
65.297875560 265.0
65.319608440 302.0
65.341341320 273.0
65.363074200 297.0
65.384807080 319.0
65.406539960 316.0
65.428272840 307.0
65.450005720 285.0
65.471738600 317.0
65.493471480 326.0
65.515204360 303.0
65.536937240 334.0
65.558670120 326.0
65.580403000 311.0
65.602135880 280.0
65.623868760 345.0
65.645601640 324.0
65.667334520 360.0
65.689067400 345.0
65.710800280 361.0
65.732533160 395.0
65.754266040 380.0
65.775998920 416.0
65.797731800 437.0
65.819464680 442.0
65.841197560 515.0
65.862930440 528.0
65.884663320 529.0
65.906396200 595.0
65.928129080 611.0
65.949861960 624.0
65.971594840 630.0
65.993327720 664.0
66.015060600 731.0
66.036793480 804.0
66.058526360 1016.0
66.080259240 1160.0
66.101992120 1496.0
66.123725000 2152.0
66.145457880 3397.0
66.167190760 5310.0
66.188923640 8179.0
66.210656520 11631.0
66.232389400 13726.0
66.254122280 12165.0
66.275855160 8752.0
66.297588040 5701.0
66.319320920 4050.0
66.341053800 3718.0
66.362786680 4361.0
66.384519560 5535.0
66.406252440 6739.0
66.427985320 7127.0
66.449718200 5656.0
66.471451080 3912.0
66.493183960 2459.0
66.514916840 1610.0
66.536649720 1227.0
66.558382600 981.0
66.580115480 781.0
66.601848360 695.0
66.623581240 601.0
66.645314120 550.0
66.667047000 479.0
66.688779880 474.0
66.710512760 455.0
66.732245640 493.0
66.753978520 430.0
66.775711400 423.0
66.797444280 417.0
66.819177160 364.0
66.840910040 347.0
66.862642920 351.0
66.884375800 393.0
66.906108680 344.0
66.927841560 373.0
66.949574440 354.0
66.971307320 357.0
66.993040200 355.0
67.014773080 337.0
67.036505960 323.0
67.058238840 315.0
67.079971720 312.0
67.101704600 320.0
67.123437480 306.0
67.145170360 345.0
67.166903240 293.0
67.188636120 307.0
67.210369000 272.0
67.232101880 295.0
67.253834760 293.0
67.275567640 285.0
67.297300520 294.0
67.319033400 299.0
67.340766280 286.0
67.362499160 296.0
67.384232040 275.0
67.405964920 268.0
67.427697800 304.0
67.449430680 275.0
67.471163560 291.0
67.492896440 239.0
67.514629320 262.0
67.536362200 283.0
67.558095080 303.0
67.579827960 277.0
67.601560840 279.0
67.623293720 248.0
67.645026600 265.0
67.666759480 292.0
67.688492360 263.0
67.710225240 236.0
67.731958120 269.0
67.753691000 288.0
67.775423880 245.0
67.797156760 237.0
67.818889640 249.0
67.840622520 288.0
67.862355400 265.0
67.884088280 238.0
67.905821160 245.0
67.927554040 271.0
67.949286920 285.0
67.971019800 261.0
67.992752680 243.0
68.014485560 266.0
68.036218440 257.0
68.057951320 262.0
68.079684200 261.0
68.101417080 240.0
68.123149960 249.0
68.144882840 236.0
68.166615720 233.0
68.188348600 267.0
68.210081480 247.0
68.231814360 236.0
68.253547240 246.0
68.275280120 290.0
68.297013000 235.0
68.318745880 237.0
68.340478760 225.0
68.362211640 233.0
68.383944520 245.0
68.405677400 217.0
68.427410280 262.0
68.449143160 246.0
68.470876040 243.0
68.492608920 241.0
68.514341800 240.0
68.536074680 223.0
68.557807560 217.0
68.579540440 233.0
68.601273320 256.0
68.623006200 230.0
68.644739080 225.0
68.666471960 256.0
68.688204840 234.0
68.709937720 260.0
68.731670600 262.0
68.753403480 240.0
68.775136360 257.0
68.796869240 224.0
68.818602120 217.0
68.840335000 218.0
68.862067880 268.0
68.883800760 245.0
68.905533640 233.0
68.927266520 235.0
68.948999400 242.0
68.970732280 244.0
68.992465160 243.0
69.014198040 240.0
69.035930920 220.0
69.057663800 232.0
69.079396680 239.0
69.101129560 264.0
69.122862440 239.0
69.144595320 226.0
69.166328200 210.0
69.188061080 264.0
69.209793960 223.0
69.231526840 247.0
69.253259720 241.0
69.274992600 265.0
69.296725480 223.0
69.318458360 226.0
69.340191240 207.0
69.361924120 226.0
69.383657000 216.0
69.405389880 219.0
69.427122760 248.0
69.448855640 286.0
69.470588520 232.0
69.492321400 224.0
69.514054280 224.0
69.535787160 227.0
69.557520040 223.0
69.579252920 217.0
69.600985800 230.0
69.622718680 225.0
69.644451560 236.0
69.666184440 232.0
69.687917320 269.0
69.709650200 206.0
69.731383080 209.0
69.753115960 218.0
69.774848840 204.0
69.796581720 221.0
69.818314600 202.0
69.840047480 217.0
69.861780360 222.0
69.883513240 226.0
69.905246120 229.0
69.926979000 234.0
69.948711880 211.0
69.970444760 217.0
69.992177640 215.0
70.013910520 249.0
70.035643400 235.0
70.057376280 236.0
70.079109160 222.0
70.100842040 260.0
70.122574920 218.0
70.144307800 216.0
70.166040680 235.0
70.187773560 249.0
70.209506440 223.0
70.231239320 223.0
70.252972200 244.0
70.274705080 230.0
70.296437960 222.0
70.318170840 227.0
70.339903720 198.0
70.361636600 210.0
70.383369480 248.0
70.405102360 230.0
70.426835240 224.0
70.448568120 211.0
70.470301000 231.0
70.492033880 227.0
70.513766760 202.0
70.535499640 258.0
70.557232520 228.0
70.578965400 213.0
70.600698280 245.0
70.622431160 246.0
70.644164040 207.0
70.665896920 229.0
70.687629800 259.0
70.709362680 238.0
70.731095560 213.0
70.752828440 224.0
70.774561320 217.0
70.796294200 251.0
70.818027080 222.0
70.839759960 229.0
70.861492840 229.0
70.883225720 189.0
70.904958600 213.0
70.926691480 235.0
70.948424360 237.0
70.970157240 218.0
70.991890120 237.0
71.013623000 231.0
71.035355880 243.0
71.057088760 211.0
71.078821640 200.0
71.100554520 226.0
71.122287400 248.0
71.144020280 190.0
71.165753160 246.0
71.187486040 231.0
71.209218920 230.0
71.230951800 218.0
71.252684680 242.0
71.274417560 249.0
71.296150440 212.0
71.317883320 246.0
71.339616200 241.0
71.361349080 231.0
71.383081960 245.0
71.404814840 260.0
71.426547720 236.0
71.448280600 240.0
71.470013480 237.0
71.491746360 232.0
71.513479240 258.0
71.535212120 277.0
71.556945000 247.0
71.578677880 243.0
71.600410760 260.0
71.622143640 246.0
71.643876520 241.0
71.665609400 214.0
71.687342280 260.0
71.709075160 265.0
71.730808040 225.0
71.752540920 245.0
71.774273800 221.0
71.796006680 248.0
71.817739560 229.0
71.839472440 206.0
71.861205320 197.0
71.882938200 217.0
71.904671080 212.0
71.926403960 197.0
71.948136840 248.0
71.969869720 232.0
71.991602600 256.0
72.013335480 217.0
72.035068360 248.0
72.056801240 194.0
72.078534120 198.0
72.100267000 194.0
72.121999880 210.0
72.143732760 243.0
72.165465640 200.0
72.187198520 199.0
72.208931400 240.0
72.230664280 234.0
72.252397160 248.0
72.274130040 228.0
72.295862920 227.0
72.317595800 273.0
72.339328680 224.0
72.361061560 265.0
72.382794440 216.0
72.404527320 225.0
72.426260200 239.0
72.447993080 237.0
72.469725960 263.0
72.491458840 230.0
72.513191720 217.0
72.534924600 201.0
72.556657480 240.0
72.578390360 245.0
72.600123240 278.0
72.621856120 248.0
72.643589000 256.0
72.665321880 268.0
72.687054760 268.0
72.708787640 271.0
72.730520520 264.0
72.752253400 248.0
72.773986280 239.0
72.795719160 249.0
72.817452040 274.0
72.839184920 244.0
72.860917800 278.0
72.882650680 243.0
72.904383560 261.0
72.926116440 272.0
72.947849320 305.0
72.969582200 318.0
72.991315080 372.0
73.013047960 399.0
73.034780840 489.0
73.056513720 519.0
73.078246600 474.0
73.099979480 425.0
73.121712360 370.0
73.143445240 347.0
73.165178120 333.0
73.186911000 331.0
73.208643880 331.0
73.230376760 345.0
73.252109640 377.0
73.273842520 363.0
73.295575400 349.0
73.317308280 366.0
73.339041160 316.0
73.360774040 325.0
73.382506920 295.0
73.404239800 280.0
73.425972680 286.0
73.447705560 247.0
73.469438440 239.0
73.491171320 267.0
73.512904200 242.0
73.534637080 275.0
73.556369960 227.0
73.578102840 239.0
73.599835720 249.0
73.621568600 258.0
73.643301480 261.0
73.665034360 243.0
73.686767240 257.0
73.708500120 257.0
73.730233000 242.0
73.751965880 262.0
73.773698760 235.0
73.795431640 233.0
73.817164520 235.0
73.838897400 250.0
73.860630280 241.0
73.882363160 228.0
73.904096040 238.0
73.925828920 247.0
73.947561800 285.0
73.969294680 268.0
73.991027560 245.0
74.012760440 268.0
74.034493320 256.0
74.056226200 248.0
74.077959080 248.0
74.099691960 290.0
74.121424840 267.0
74.143157720 260.0
74.164890600 277.0
74.186623480 240.0
74.208356360 282.0
74.230089240 293.0
74.251822120 279.0
74.273555000 304.0
74.295287880 290.0
74.317020760 275.0
74.338753640 281.0
74.360486520 296.0
74.382219400 299.0
74.403952280 309.0
74.425685160 294.0
74.447418040 271.0
74.469150920 312.0
74.490883800 256.0
74.512616680 273.0
74.534349560 250.0
74.556082440 316.0
74.577815320 301.0
74.599548200 287.0
74.621281080 297.0
74.643013960 268.0
74.664746840 299.0
74.686479720 287.0
74.708212600 300.0
74.729945480 317.0
74.751678360 311.0
74.773411240 337.0
74.795144120 322.0
74.816877000 346.0
74.838609880 336.0
74.860342760 356.0
74.882075640 381.0
74.903808520 409.0
74.925541400 412.0
74.947274280 434.0
74.969007160 442.0
74.990740040 445.0
75.012472920 456.0
75.034205800 508.0
75.055938680 546.0
75.077671560 632.0
75.099404440 747.0
75.121137320 875.0
75.142870200 995.0
75.164603080 1366.0
75.186335960 1721.0
75.208068840 2487.0
75.229801720 3633.0
75.251534600 4944.0
75.273267480 5921.0
75.295000360 5904.0
75.316733240 5047.0
75.338466120 3661.0
75.360199000 2775.0
75.381931880 2334.0
75.403664760 2002.0
75.425397640 2108.0
75.447130520 2323.0
75.468863400 2965.0
75.490596280 3237.0
75.512329160 3353.0
75.534062040 2805.0
75.555794920 2181.0
75.577527800 1596.0
75.599260680 1263.0
75.620993560 962.0
75.642726440 728.0
75.664459320 628.0
75.686192200 535.0
75.707925080 497.0
75.729657960 480.0
75.751390840 441.0
75.773123720 437.0
75.794856600 384.0
75.816589480 393.0
75.838322360 351.0
75.860055240 348.0
75.881788120 315.0
75.903521000 297.0
75.925253880 309.0
75.946986760 262.0
75.968719640 305.0
75.990452520 302.0
76.012185400 284.0
76.033918280 312.0
76.055651160 278.0
76.077384040 251.0
76.099116920 262.0
76.120849800 302.0
76.142582680 280.0
76.164315560 248.0
76.186048440 247.0
76.207781320 246.0
76.229514200 248.0
76.251247080 239.0
76.272979960 272.0
76.294712840 248.0
76.316445720 270.0
76.338178600 243.0
76.359911480 280.0
76.381644360 238.0
76.403377240 269.0
76.425110120 248.0
76.446843000 234.0
76.468575880 250.0
76.490308760 256.0
76.512041640 241.0
76.533774520 224.0
76.555507400 228.0
76.577240280 214.0
76.598973160 220.0
76.620706040 228.0
76.642438920 216.0
76.664171800 205.0
76.685904680 223.0
76.707637560 230.0
76.729370440 249.0
76.751103320 223.0
76.772836200 248.0
76.794569080 273.0
76.816301960 236.0
76.838034840 227.0
76.859767720 263.0
76.881500600 246.0
76.903233480 221.0
76.924966360 259.0
76.946699240 231.0
76.968432120 231.0
76.990165000 250.0
77.011897880 210.0
77.033630760 249.0
77.055363640 231.0
77.077096520 290.0
77.098829400 239.0
77.120562280 225.0
77.142295160 230.0
77.164028040 217.0
77.185760920 215.0
77.207493800 239.0
77.229226680 225.0
77.250959560 232.0
77.272692440 207.0
77.294425320 207.0
77.316158200 239.0
77.337891080 184.0
77.359623960 225.0
77.381356840 260.0
77.403089720 244.0
77.424822600 227.0
77.446555480 215.0
77.468288360 238.0
77.490021240 229.0
77.511754120 222.0
77.533487000 213.0
77.555219880 238.0
77.576952760 215.0
77.598685640 232.0
77.620418520 205.0
77.642151400 216.0
77.663884280 229.0
77.685617160 225.0
77.707350040 234.0
77.729082920 218.0
77.750815800 225.0
77.772548680 212.0
77.794281560 200.0
77.816014440 215.0
77.837747320 218.0
77.859480200 224.0
77.881213080 219.0
77.902945960 217.0
77.924678840 199.0
77.946411720 225.0
77.968144600 202.0
77.989877480 219.0
78.011610360 220.0
78.033343240 222.0
78.055076120 218.0
78.076809000 219.0
78.098541880 229.0
78.120274760 200.0
78.142007640 220.0
78.163740520 226.0
78.185473400 216.0
78.207206280 214.0
78.228939160 238.0
78.250672040 210.0
78.272404920 222.0
78.294137800 204.0
78.315870680 234.0
78.337603560 217.0
78.359336440 215.0
78.381069320 203.0
78.402802200 216.0
78.424535080 209.0
78.446267960 214.0
78.468000840 198.0
78.489733720 230.0
78.511466600 208.0
78.533199480 237.0
78.554932360 246.0
78.576665240 222.0
78.598398120 217.0
78.620131000 229.0
78.641863880 246.0
78.663596760 249.0
78.685329640 250.0
78.707062520 250.0
78.728795400 214.0
78.750528280 223.0
78.772261160 203.0
78.793994040 222.0
78.815726920 215.0
78.837459800 217.0
78.859192680 205.0
78.880925560 237.0
78.902658440 217.0
78.924391320 198.0
78.946124200 227.0
78.967857080 208.0
78.989589960 175.0
79.011322840 212.0
79.033055720 207.0
79.054788600 211.0
79.076521480 194.0
79.098254360 215.0
79.119987240 196.0
79.141720120 204.0
79.163453000 200.0
79.185185880 198.0
79.206918760 195.0
79.228651640 193.0
79.250384520 195.0
79.272117400 203.0
79.293850280 199.0
79.315583160 220.0
79.337316040 190.0
79.359048920 212.0
79.380781800 227.0
79.402514680 192.0
79.424247560 215.0
79.445980440 219.0
79.467713320 221.0
79.489446200 195.0
79.511179080 182.0
79.532911960 187.0
79.554644840 194.0
79.576377720 198.0
79.598110600 222.0
79.619843480 192.0
79.641576360 193.0
79.663309240 202.0
79.685042120 198.0
79.706775000 216.0
79.728507880 226.0
79.750240760 199.0
79.771973640 205.0
79.793706520 225.0
79.815439400 211.0
79.837172280 210.0
79.858905160 206.0
79.880638040 236.0
79.902370920 214.0
79.924103800 224.0
79.945836680 226.0
79.967569560 220.0
79.989302440 200.0
80.011035320 214.0
80.032768200 206.0
80.054501080 194.0
80.076233960 205.0
80.097966840 196.0
80.119699720 228.0
80.141432600 234.0
80.163165480 189.0
80.184898360 218.0
80.206631240 200.0
80.228364120 178.0
80.250097000 195.0
80.271829880 227.0
80.293562760 202.0
80.315295640 196.0
80.337028520 208.0
80.358761400 213.0
80.380494280 195.0
80.402227160 226.0
80.423960040 194.0
80.445692920 169.0
80.467425800 202.0
80.489158680 234.0
80.510891560 192.0
80.532624440 233.0
80.554357320 199.0
80.576090200 200.0
80.597823080 211.0
80.619555960 186.0
80.641288840 204.0
80.663021720 179.0
80.684754600 237.0
80.706487480 210.0
80.728220360 206.0
80.749953240 180.0
80.771686120 222.0
80.793419000 222.0
80.815151880 191.0
80.836884760 200.0
80.858617640 197.0
80.880350520 183.0
80.902083400 208.0
80.923816280 204.0
80.945549160 238.0
80.967282040 247.0
80.989014920 224.0
81.010747800 194.0
81.032480680 190.0
81.054213560 200.0
81.075946440 220.0
81.097679320 217.0
81.119412200 230.0
81.141145080 216.0
81.162877960 176.0
81.184610840 215.0
81.206343720 200.0
81.228076600 201.0
81.249809480 171.0
81.271542360 208.0
81.293275240 212.0
81.315008120 187.0
81.336741000 229.0
81.358473880 207.0
81.380206760 183.0
81.401939640 198.0
81.423672520 214.0
81.445405400 176.0
81.467138280 224.0
81.488871160 215.0
81.510604040 189.0
81.532336920 183.0
81.554069800 193.0
81.575802680 223.0
81.597535560 199.0
81.619268440 185.0
81.641001320 177.0
81.662734200 196.0
81.684467080 203.0
81.706199960 233.0
81.727932840 205.0
81.749665720 227.0
81.771398600 195.0
81.793131480 195.0
81.814864360 181.0
81.836597240 222.0
81.858330120 219.0
81.880063000 214.0
81.901795880 205.0
81.923528760 216.0
81.945261640 218.0
81.966994520 220.0
81.988727400 195.0
82.010460280 208.0
82.032193160 221.0
82.053926040 199.0
82.075658920 211.0
82.097391800 198.0
82.119124680 225.0
82.140857560 201.0
82.162590440 195.0
82.184323320 242.0
82.206056200 197.0
82.227789080 213.0
82.249521960 236.0
82.271254840 205.0
82.292987720 202.0
82.314720600 188.0
82.336453480 190.0
82.358186360 208.0
82.379919240 199.0
82.401652120 202.0
82.423385000 212.0
82.445117880 207.0
82.466850760 180.0
82.488583640 202.0
82.510316520 221.0
82.532049400 202.0
82.553782280 190.0
82.575515160 194.0
82.597248040 238.0
82.618980920 220.0
82.640713800 239.0
82.662446680 234.0
82.684179560 250.0
82.705912440 227.0
82.727645320 200.0
82.749378200 214.0
82.771111080 217.0
82.792843960 217.0
82.814576840 244.0
82.836309720 265.0
82.858042600 227.0
82.879775480 230.0
82.901508360 239.0
82.923241240 269.0
82.944974120 235.0
82.966707000 228.0
82.988439880 224.0
83.010172760 230.0
83.031905640 219.0
83.053638520 242.0
83.075371400 204.0
83.097104280 216.0
83.118837160 234.0
83.140570040 224.0
83.162302920 219.0
83.184035800 218.0
83.205768680 210.0
83.227501560 224.0
83.249234440 230.0
83.270967320 219.0
83.292700200 220.0
83.314433080 220.0
83.336165960 226.0
83.357898840 214.0
83.379631720 246.0
83.401364600 243.0
83.423097480 271.0
83.444830360 228.0
83.466563240 249.0
83.488296120 293.0
83.510029000 292.0
83.531761880 257.0
83.553494760 284.0
83.575227640 308.0
83.596960520 304.0
83.618693400 279.0
83.640426280 265.0
83.662159160 289.0
83.683892040 318.0
83.705624920 340.0
83.727357800 392.0
83.749090680 392.0
83.770823560 413.0
83.792556440 462.0
83.814289320 539.0
83.836022200 603.0
83.857755080 749.0
83.879487960 919.0
83.901220840 1313.0
83.922953720 1772.0
83.944686600 2313.0
83.966419480 2667.0
83.988152360 2747.0
84.009885240 2525.0
84.031618120 1998.0
84.053351000 1611.0
84.075083880 1270.0
84.096816760 1088.0
84.118549640 953.0
84.140282520 995.0
84.162015400 1096.0
84.183748280 1238.0
84.205481160 1351.0
84.227214040 1602.0
84.248946920 1675.0
84.270679800 1326.0
84.292412680 1118.0
84.314145560 834.0
84.335878440 726.0
84.357611320 521.0
84.379344200 510.0
84.401077080 432.0
84.422809960 416.0
84.444542840 337.0
84.466275720 318.0
84.488008600 340.0
84.509741480 313.0
84.531474360 310.0
84.553207240 251.0
84.574940120 272.0
84.596673000 221.0
84.618405880 272.0
84.640138760 236.0
84.661871640 262.0
84.683604520 219.0
84.705337400 234.0
84.727070280 207.0
84.748803160 193.0
84.770536040 197.0
84.792268920 206.0
84.814001800 212.0
84.835734680 186.0
84.857467560 201.0
84.879200440 200.0
84.900933320 201.0
84.922666200 184.0
84.944399080 203.0
84.966131960 204.0
84.987864840 223.0
85.009597720 217.0
85.031330600 197.0
85.053063480 215.0
85.074796360 179.0
85.096529240 199.0
85.118262120 192.0
85.139995000 195.0
85.161727880 184.0
85.183460760 189.0
85.205193640 204.0
85.226926520 184.0
85.248659400 188.0
85.270392280 213.0
85.292125160 205.0
85.313858040 187.0
85.335590920 203.0
85.357323800 204.0
85.379056680 212.0
85.400789560 206.0
85.422522440 188.0
85.444255320 201.0
85.465988200 209.0
85.487721080 192.0
85.509453960 193.0
85.531186840 187.0
85.552919720 189.0
85.574652600 210.0
85.596385480 187.0
85.618118360 205.0
85.639851240 194.0
85.661584120 200.0
85.683317000 193.0
85.705049880 191.0
85.726782760 208.0
85.748515640 190.0
85.770248520 193.0
85.791981400 208.0
85.813714280 220.0
85.835447160 205.0
85.857180040 196.0
85.878912920 192.0
85.900645800 196.0
85.922378680 185.0
85.944111560 178.0
85.965844440 184.0
85.987577320 186.0
86.009310200 186.0
86.031043080 183.0
86.052775960 168.0
86.074508840 180.0
86.096241720 176.0
86.117974600 200.0
86.139707480 182.0
86.161440360 160.0
86.183173240 161.0
86.204906120 188.0
86.226639000 195.0
86.248371880 176.0
86.270104760 196.0
86.291837640 190.0
86.313570520 188.0
86.335303400 173.0
86.357036280 163.0
86.378769160 203.0
86.400502040 170.0
86.422234920 201.0
86.443967800 168.0
86.465700680 181.0
86.487433560 204.0
86.509166440 163.0
86.530899320 187.0
86.552632200 179.0
86.574365080 205.0
86.596097960 160.0
86.617830840 163.0
86.639563720 152.0
86.661296600 180.0
86.683029480 173.0
86.704762360 189.0
86.726495240 197.0
86.748228120 200.0
86.769961000 186.0
86.791693880 171.0
86.813426760 171.0
86.835159640 177.0
86.856892520 171.0
86.878625400 187.0
86.900358280 216.0
86.922091160 180.0
86.943824040 188.0
86.965556920 190.0
86.987289800 189.0
87.009022680 180.0
87.030755560 192.0
87.052488440 187.0
87.074221320 200.0
87.095954200 169.0
87.117687080 158.0
87.139419960 172.0
87.161152840 180.0
87.182885720 157.0
87.204618600 170.0
87.226351480 190.0
87.248084360 190.0
87.269817240 166.0
87.291550120 159.0
87.313283000 147.0
87.335015880 165.0
87.356748760 186.0
87.378481640 198.0
87.400214520 155.0
87.421947400 160.0
87.443680280 178.0
87.465413160 181.0
87.487146040 183.0
87.508878920 219.0
87.530611800 181.0
87.552344680 171.0
87.574077560 191.0
87.595810440 163.0
87.617543320 148.0
87.639276200 194.0
87.661009080 173.0
87.682741960 191.0
87.704474840 177.0
87.726207720 173.0
87.747940600 185.0
87.769673480 171.0
87.791406360 159.0
87.813139240 175.0
87.834872120 194.0
87.856605000 193.0
87.878337880 177.0
87.900070760 210.0
87.921803640 182.0
87.943536520 205.0
87.965269400 157.0
87.987002280 177.0
88.008735160 171.0
88.030468040 174.0
88.052200920 163.0
88.073933800 154.0
88.095666680 185.0
88.117399560 176.0
88.139132440 194.0
88.160865320 203.0
88.182598200 217.0
88.204331080 216.0
88.226063960 216.0
88.247796840 207.0
88.269529720 192.0
88.291262600 183.0
88.312995480 199.0
88.334728360 221.0
88.356461240 214.0
88.378194120 222.0
88.399927000 207.0
88.421659880 205.0
88.443392760 197.0
88.465125640 239.0
88.486858520 233.0
88.508591400 196.0
88.530324280 187.0
88.552057160 204.0
88.573790040 210.0
88.595522920 208.0
88.617255800 226.0
88.638988680 212.0
88.660721560 205.0
88.682454440 206.0
88.704187320 185.0
88.725920200 195.0
88.747653080 179.0
88.769385960 187.0
88.791118840 168.0
88.812851720 194.0
88.834584600 209.0
88.856317480 204.0
88.878050360 176.0
88.899783240 197.0
88.921516120 183.0
88.943249000 187.0
88.964981880 191.0
88.986714760 207.0
89.008447640 181.0
89.030180520 161.0
89.051913400 175.0
89.073646280 192.0
89.095379160 176.0
89.117112040 186.0
89.138844920 165.0
89.160577800 169.0
89.182310680 169.0
89.204043560 175.0
89.225776440 170.0
89.247509320 175.0
89.269242200 163.0
89.290975080 166.0
89.312707960 183.0
89.334440840 150.0
89.356173720 199.0
89.377906600 155.0
89.399639480 130.0
89.421372360 158.0
89.443105240 188.0
89.464838120 178.0
89.486571000 175.0
89.508303880 175.0
89.530036760 180.0
89.551769640 169.0
89.573502520 184.0
89.595235400 171.0
89.616968280 201.0
89.638701160 180.0
89.660434040 170.0
89.682166920 148.0
89.703899800 177.0
89.725632680 186.0
89.747365560 202.0
89.769098440 211.0
89.790831320 176.0
89.812564200 185.0
89.834297080 183.0
89.856029960 173.0
89.877762840 182.0
89.899495720 169.0
89.921228600 194.0
89.942961480 209.0
89.964694360 180.0
89.986427240 195.0
90.008160120 177.0
90.029893000 182.0
90.051625880 156.0
90.073358760 188.0
90.095091640 163.0
90.116824520 184.0
90.138557400 183.0
90.160290280 186.0
90.182023160 194.0
90.203756040 219.0
90.225488920 216.0
90.247221800 220.0
90.268954680 203.0
90.290687560 263.0
90.312420440 317.0
90.334153320 327.0
90.355886200 385.0
90.377619080 520.0
90.399351960 547.0
90.421084840 523.0
90.442817720 435.0
90.464550600 389.0
90.486283480 353.0
90.508016360 314.0
90.529749240 268.0
90.551482120 280.0
90.573215000 269.0
90.594947880 225.0
90.616680760 284.0
90.638413640 302.0
90.660146520 326.0
90.681879400 393.0
90.703612280 359.0
90.725345160 330.0
90.747078040 329.0
90.768810920 269.0
90.790543800 260.0
90.812276680 199.0
90.834009560 197.0
90.855742440 193.0
90.877475320 196.0
90.899208200 191.0
90.920941080 190.0
90.942673960 213.0
90.964406840 193.0
90.986139720 186.0
91.007872600 197.0
91.029605480 182.0
91.051338360 157.0
91.073071240 172.0
91.094804120 174.0
91.116537000 164.0
91.138269880 192.0
91.160002760 191.0
91.181735640 170.0
91.203468520 159.0
91.225201400 178.0
91.246934280 180.0
91.268667160 146.0
91.290400040 184.0
91.312132920 162.0
91.333865800 169.0
91.355598680 186.0
91.377331560 174.0
91.399064440 164.0
91.420797320 202.0
91.442530200 196.0
91.464263080 207.0
91.485995960 184.0
91.507728840 182.0
91.529461720 216.0
91.551194600 153.0
91.572927480 168.0
91.594660360 170.0
91.616393240 154.0
91.638126120 169.0
91.659859000 138.0
91.681591880 178.0
91.703324760 159.0
91.725057640 174.0
91.746790520 170.0
91.768523400 174.0
91.790256280 175.0
91.811989160 168.0
91.833722040 169.0
91.855454920 163.0
91.877187800 177.0
91.898920680 176.0
91.920653560 168.0
91.942386440 158.0
91.964119320 132.0
91.985852200 167.0
92.007585080 177.0
92.029317960 156.0
92.051050840 168.0
92.072783720 161.0
92.094516600 164.0
92.116249480 195.0
92.137982360 184.0
92.159715240 166.0
92.181448120 163.0
92.203181000 157.0
92.224913880 179.0
92.246646760 173.0
92.268379640 171.0
92.290112520 148.0
92.311845400 156.0
92.333578280 153.0
92.355311160 150.0
92.377044040 155.0
92.398776920 162.0
92.420509800 146.0
92.442242680 179.0
92.463975560 162.0
92.485708440 166.0
92.507441320 189.0
92.529174200 170.0
92.550907080 177.0
92.572639960 188.0
92.594372840 171.0
92.616105720 171.0
92.637838600 181.0
92.659571480 177.0
92.681304360 139.0
92.703037240 174.0
92.724770120 169.0
92.746503000 183.0
92.768235880 184.0
92.789968760 152.0
92.811701640 175.0
92.833434520 190.0
92.855167400 185.0
92.876900280 157.0
92.898633160 153.0
92.920366040 154.0
92.942098920 192.0
92.963831800 183.0
92.985564680 158.0
93.007297560 180.0
93.029030440 183.0
93.050763320 172.0
93.072496200 193.0
93.094229080 165.0
93.115961960 163.0
93.137694840 164.0
93.159427720 189.0
93.181160600 162.0
93.202893480 173.0
93.224626360 147.0
93.246359240 166.0
93.268092120 174.0
93.289825000 158.0
93.311557880 153.0
93.333290760 191.0
93.355023640 161.0
93.376756520 169.0
93.398489400 178.0
93.420222280 164.0
93.441955160 171.0
93.463688040 151.0
93.485420920 146.0
93.507153800 142.0
93.528886680 158.0
93.550619560 160.0
93.572352440 193.0
93.594085320 165.0
93.615818200 157.0
93.637551080 145.0
93.659283960 157.0
93.681016840 193.0
93.702749720 176.0
93.724482600 164.0
93.746215480 172.0
93.767948360 162.0
93.789681240 161.0
93.811414120 194.0
93.833147000 192.0
93.854879880 173.0
93.876612760 161.0
93.898345640 174.0
93.920078520 181.0
93.941811400 150.0
93.963544280 147.0
93.985277160 174.0
94.007010040 142.0
94.028742920 138.0
94.050475800 147.0
94.072208680 175.0
94.093941560 159.0
94.115674440 168.0
94.137407320 152.0
94.159140200 160.0
94.180873080 177.0
94.202605960 172.0
94.224338840 156.0
94.246071720 131.0
94.267804600 160.0
94.289537480 176.0
94.311270360 162.0
94.333003240 165.0
94.354736120 180.0
94.376469000 157.0
94.398201880 179.0
94.419934760 162.0
94.441667640 163.0
94.463400520 171.0
94.485133400 163.0
94.506866280 162.0
94.528599160 154.0
94.550332040 150.0
94.572064920 171.0
94.593797800 140.0
94.615530680 161.0
94.637263560 160.0
94.658996440 170.0
94.680729320 148.0
94.702462200 143.0
94.724195080 188.0
94.745927960 157.0
94.767660840 178.0
94.789393720 182.0
94.811126600 189.0
94.832859480 160.0
94.854592360 154.0
94.876325240 169.0
94.898058120 163.0
94.919791000 170.0
94.941523880 163.0
94.963256760 150.0
94.984989640 158.0
95.006722520 177.0
95.028455400 162.0
95.050188280 177.0
95.071921160 150.0
95.093654040 138.0
95.115386920 155.0
95.137119800 193.0
95.158852680 178.0
95.180585560 176.0
95.202318440 194.0
95.224051320 183.0
95.245784200 207.0
95.267517080 169.0
95.289249960 164.0
95.310982840 164.0
95.332715720 166.0
95.354448600 180.0
95.376181480 180.0
95.397914360 167.0
95.419647240 198.0
95.441380120 188.0
95.463113000 208.0
95.484845880 189.0
95.506578760 160.0
95.528311640 178.0
95.550044520 173.0
95.571777400 197.0
95.593510280 197.0
95.615243160 199.0
95.636976040 187.0
95.658708920 171.0
95.680441800 153.0
95.702174680 163.0
95.723907560 170.0
95.745640440 137.0
95.767373320 198.0
95.789106200 185.0
95.810839080 163.0
95.832571960 159.0
95.854304840 174.0
95.876037720 173.0
95.897770600 156.0
95.919503480 169.0
95.941236360 209.0
95.962969240 171.0
95.984702120 163.0
96.006435000 174.0
96.028167880 190.0
96.049900760 170.0
96.071633640 169.0
96.093366520 178.0
96.115099400 168.0
96.136832280 164.0
96.158565160 191.0
96.180298040 167.0
96.202030920 164.0
96.223763800 149.0
96.245496680 175.0
96.267229560 132.0
96.288962440 154.0
96.310695320 172.0
96.332428200 160.0
96.354161080 160.0
96.375893960 185.0
96.397626840 156.0
96.419359720 178.0
96.441092600 149.0
96.462825480 191.0
96.484558360 155.0
96.506291240 185.0
96.528024120 162.0
96.549757000 159.0
96.571489880 184.0
96.593222760 197.0
96.614955640 174.0
96.636688520 177.0
96.658421400 180.0
96.680154280 187.0
96.701887160 169.0
96.723620040 163.0
96.745352920 160.0
96.767085800 179.0
96.788818680 168.0
96.810551560 214.0
96.832284440 179.0
96.854017320 149.0
96.875750200 164.0
96.897483080 171.0
96.919215960 158.0
96.940948840 180.0
96.962681720 164.0
96.984414600 175.0
97.006147480 163.0
97.027880360 158.0
97.049613240 170.0
97.071346120 171.0
97.093079000 158.0
97.114811880 153.0
97.136544760 181.0
97.158277640 144.0
97.180010520 155.0
97.201743400 191.0
97.223476280 135.0
97.245209160 154.0
97.266942040 150.0
97.288674920 167.0
97.310407800 196.0
97.332140680 154.0
97.353873560 172.0
97.375606440 170.0
97.397339320 145.0
97.419072200 139.0
97.440805080 162.0
97.462537960 178.0
97.484270840 166.0
97.506003720 155.0
97.527736600 170.0
97.549469480 187.0
97.571202360 160.0
97.592935240 154.0
97.614668120 171.0
97.636401000 175.0
97.658133880 177.0
97.679866760 161.0
97.701599640 188.0
97.723332520 156.0
97.745065400 171.0
97.766798280 175.0
97.788531160 169.0
97.810264040 164.0
97.831996920 188.0
97.853729800 174.0
97.875462680 160.0
97.897195560 189.0
97.918928440 176.0
97.940661320 171.0
97.962394200 174.0
97.984127080 163.0
98.005859960 166.0
98.027592840 173.0
98.049325720 174.0
98.071058600 164.0
98.092791480 172.0
98.114524360 174.0
98.136257240 163.0
98.157990120 160.0
98.179723000 136.0
98.201455880 189.0
98.223188760 180.0
98.244921640 168.0
98.266654520 141.0
98.288387400 175.0
98.310120280 178.0
98.331853160 169.0
98.353586040 177.0
98.375318920 160.0
98.397051800 158.0
98.418784680 155.0
98.440517560 158.0
98.462250440 184.0
98.483983320 157.0
98.505716200 190.0
98.527449080 163.0
98.549181960 160.0
98.570914840 185.0
98.592647720 185.0
98.614380600 169.0
98.636113480 160.0
98.657846360 152.0
98.679579240 172.0
98.701312120 151.0
98.723045000 190.0
98.744777880 178.0
98.766510760 165.0
98.788243640 183.0
98.809976520 161.0
98.831709400 199.0
98.853442280 191.0
98.875175160 161.0
98.896908040 182.0
98.918640920 171.0
98.940373800 159.0
98.962106680 164.0
98.983839560 180.0
99.005572440 171.0
99.027305320 185.0
99.049038200 129.0
99.070771080 202.0
99.092503960 171.0
99.114236840 182.0
99.135969720 183.0
99.157702600 171.0
99.179435480 161.0
99.201168360 177.0
99.222901240 160.0
99.244634120 182.0
99.266367000 153.0
99.288099880 166.0
99.309832760 188.0
99.331565640 170.0
99.353298520 190.0
99.375031400 193.0
99.396764280 194.0
99.418497160 185.0
99.440230040 170.0
99.461962920 161.0
99.483695800 176.0
99.505428680 213.0
99.527161560 162.0
99.548894440 171.0
99.570627320 183.0
99.592360200 163.0
99.614093080 177.0
99.635825960 184.0
99.657558840 177.0
99.679291720 159.0
99.701024600 191.0
99.722757480 188.0
99.744490360 187.0
99.766223240 172.0
99.787956120 182.0
99.809689000 177.0
99.831421880 161.0
99.853154760 181.0
99.874887640 156.0
99.896620520 178.0
99.918353400 163.0
99.940086280 195.0
99.961819160 180.0
99.983552040 177.0
100.005284920 162.0
100.027017800 168.0
100.048750680 191.0
100.070483560 200.0
100.092216440 191.0
100.113949320 193.0
100.135682200 188.0
100.157415080 184.0
100.179147960 163.0
100.200880840 180.0
100.222613720 209.0
100.244346600 185.0
100.266079480 169.0
100.287812360 173.0
100.309545240 169.0
100.331278120 182.0
100.353011000 188.0
100.374743880 179.0
100.396476760 192.0
100.418209640 171.0
100.439942520 192.0
100.461675400 198.0
100.483408280 181.0
100.505141160 166.0
100.526874040 186.0
100.548606920 199.0
100.570339800 186.0
100.592072680 202.0
100.613805560 172.0
100.635538440 208.0
100.657271320 203.0
100.679004200 186.0
100.700737080 199.0
100.722469960 206.0
100.744202840 214.0
100.765935720 230.0
100.787668600 267.0
100.809401480 216.0
100.831134360 199.0
100.852867240 219.0
100.874600120 226.0
100.896333000 242.0
100.918065880 250.0
100.939798760 248.0
100.961531640 258.0
100.983264520 299.0
101.004997400 302.0
101.026730280 396.0
101.048463160 424.0
101.070196040 497.0
101.091928920 586.0
101.113661800 708.0
101.135394680 808.0
101.157127560 857.0
101.178860440 791.0
101.200593320 727.0
101.222326200 617.0
101.244059080 522.0
101.265791960 469.0
101.287524840 403.0
101.309257720 384.0
101.330990600 349.0
101.352723480 362.0
101.374456360 329.0
101.396189240 389.0
101.417922120 385.0
101.439655000 400.0
101.461387880 439.0
101.483120760 530.0
101.504853640 561.0
101.526586520 538.0
101.548319400 491.0
101.570052280 417.0
101.591785160 345.0
101.613518040 358.0
101.635250920 305.0
101.656983800 275.0
101.678716680 260.0
101.700449560 228.0
101.722182440 223.0
101.743915320 201.0
101.765648200 232.0
101.787381080 240.0
101.809113960 231.0
101.830846840 216.0
101.852579720 193.0
101.874312600 184.0
101.896045480 187.0
101.917778360 193.0
101.939511240 198.0
101.961244120 171.0
101.982977000 200.0
102.004709880 182.0
102.026442760 173.0
102.048175640 189.0
102.069908520 159.0
102.091641400 177.0
102.113374280 218.0
102.135107160 203.0
102.156840040 192.0
102.178572920 182.0
102.200305800 187.0
102.222038680 203.0
102.243771560 172.0
102.265504440 188.0
102.287237320 195.0
102.308970200 204.0
102.330703080 190.0
102.352435960 167.0
102.374168840 216.0
102.395901720 193.0
102.417634600 195.0
102.439367480 208.0
102.461100360 224.0
102.482833240 211.0
102.504566120 193.0
102.526299000 186.0
102.548031880 205.0
102.569764760 163.0
102.591497640 181.0
102.613230520 180.0
102.634963400 224.0
102.656696280 171.0
102.678429160 188.0
102.700162040 183.0
102.721894920 175.0
102.743627800 191.0
102.765360680 208.0
102.787093560 154.0
102.808826440 200.0
102.830559320 197.0
102.852292200 160.0
102.874025080 176.0
102.895757960 215.0
102.917490840 179.0
102.939223720 204.0
102.960956600 217.0
102.982689480 197.0
103.004422360 175.0
103.026155240 147.0
103.047888120 191.0
103.069621000 203.0
103.091353880 176.0
103.113086760 213.0
103.134819640 198.0
103.156552520 172.0
103.178285400 163.0
103.200018280 223.0
103.221751160 187.0
103.243484040 186.0
103.265216920 172.0
103.286949800 151.0
103.308682680 163.0
103.330415560 191.0
103.352148440 161.0
103.373881320 178.0
103.395614200 176.0
103.417347080 182.0
103.439079960 189.0
103.460812840 157.0
103.482545720 178.0
103.504278600 202.0
103.526011480 181.0
103.547744360 179.0
103.569477240 185.0
103.591210120 161.0
103.612943000 169.0
103.634675880 181.0
103.656408760 185.0
103.678141640 196.0
103.699874520 197.0
103.721607400 183.0
103.743340280 192.0
103.765073160 180.0
103.786806040 182.0
103.808538920 170.0
103.830271800 186.0
103.852004680 188.0
103.873737560 201.0
103.895470440 168.0
103.917203320 177.0
103.938936200 169.0
103.960669080 187.0
103.982401960 183.0
104.004134840 170.0
104.025867720 170.0
104.047600600 197.0
104.069333480 198.0
104.091066360 197.0
104.112799240 203.0
104.134532120 189.0
104.156265000 198.0
104.177997880 193.0
104.199730760 167.0
104.221463640 183.0
104.243196520 176.0
104.264929400 173.0
104.286662280 198.0
104.308395160 193.0
104.330128040 186.0
104.351860920 169.0
104.373593800 191.0
104.395326680 213.0
104.417059560 185.0
104.438792440 159.0
104.460525320 175.0
104.482258200 182.0
104.503991080 172.0
104.525723960 180.0
104.547456840 180.0
104.569189720 219.0
104.590922600 194.0
104.612655480 203.0
104.634388360 183.0
104.656121240 208.0
104.677854120 213.0
104.699587000 199.0
104.721319880 184.0
104.743052760 212.0
104.764785640 212.0
104.786518520 207.0
104.808251400 199.0
104.829984280 188.0
104.851717160 186.0
104.873450040 189.0
104.895182920 196.0
104.916915800 213.0
104.938648680 207.0
104.960381560 178.0
104.982114440 216.0
105.003847320 183.0
105.025580200 209.0
105.047313080 208.0
105.069045960 180.0
105.090778840 177.0
105.112511720 202.0
105.134244600 183.0
105.155977480 188.0
105.177710360 226.0
105.199443240 217.0
105.221176120 177.0
105.242909000 199.0
105.264641880 207.0
105.286374760 227.0
105.308107640 197.0
105.329840520 204.0
105.351573400 214.0
105.373306280 207.0
105.395039160 202.0
105.416772040 189.0
105.438504920 184.0
105.460237800 214.0
105.481970680 198.0
105.503703560 207.0
105.525436440 216.0
105.547169320 211.0
105.568902200 199.0
105.590635080 193.0
105.612367960 187.0
105.634100840 211.0
105.655833720 182.0
105.677566600 203.0
105.699299480 197.0
105.721032360 197.0
105.742765240 214.0
105.764498120 204.0
105.786231000 214.0
105.807963880 193.0
105.829696760 192.0
105.851429640 201.0
105.873162520 213.0
105.894895400 197.0
105.916628280 208.0
105.938361160 215.0
105.960094040 180.0
105.981826920 191.0
106.003559800 182.0
106.025292680 187.0
106.047025560 177.0
106.068758440 201.0
106.090491320 189.0
106.112224200 183.0
106.133957080 188.0
106.155689960 214.0
106.177422840 186.0
106.199155720 181.0
106.220888600 224.0
106.242621480 241.0
106.264354360 179.0
106.286087240 228.0
106.307820120 180.0
106.329553000 187.0
106.351285880 217.0
106.373018760 192.0
106.394751640 181.0
106.416484520 179.0
106.438217400 218.0
106.459950280 203.0
106.481683160 198.0
106.503416040 192.0
106.525148920 190.0
106.546881800 213.0
106.568614680 212.0
106.590347560 202.0
106.612080440 209.0
106.633813320 190.0
106.655546200 191.0
106.677279080 171.0
106.699011960 186.0
106.720744840 200.0
106.742477720 197.0
106.764210600 202.0
106.785943480 231.0
106.807676360 232.0
106.829409240 196.0
106.851142120 189.0
106.872875000 192.0
106.894607880 218.0
106.916340760 193.0
106.938073640 186.0
106.959806520 206.0
106.981539400 217.0
107.003272280 214.0
107.025005160 223.0
107.046738040 195.0
107.068470920 247.0
107.090203800 200.0
107.111936680 200.0
107.133669560 198.0
107.155402440 213.0
107.177135320 217.0
107.198868200 202.0
107.220601080 223.0
107.242333960 215.0
107.264066840 206.0
107.285799720 189.0
107.307532600 208.0
107.329265480 195.0
107.350998360 202.0
107.372731240 230.0
107.394464120 213.0
107.416197000 212.0
107.437929880 235.0
107.459662760 199.0
107.481395640 243.0
107.503128520 222.0
107.524861400 232.0
107.546594280 225.0
107.568327160 240.0
107.590060040 274.0
107.611792920 259.0
107.633525800 269.0
107.655258680 303.0
107.676991560 345.0
107.698724440 321.0
107.720457320 380.0
107.742190200 446.0
107.763923080 477.0
107.785655960 486.0
107.807388840 529.0
107.829121720 459.0
107.850854600 425.0
107.872587480 359.0
107.894320360 371.0
107.916053240 326.0
107.937786120 340.0
107.959519000 304.0
107.981251880 260.0
108.002984760 273.0
108.024717640 269.0
108.046450520 290.0
108.068183400 303.0
108.089916280 293.0
108.111649160 326.0
108.133382040 328.0
108.155114920 390.0
108.176847800 345.0
108.198580680 376.0
108.220313560 382.0
108.242046440 318.0
108.263779320 297.0
108.285512200 267.0
108.307245080 273.0
108.328977960 285.0
108.350710840 262.0
108.372443720 263.0
108.394176600 217.0
108.415909480 232.0
108.437642360 271.0
108.459375240 232.0
108.481108120 211.0
108.502841000 193.0
108.524573880 223.0
108.546306760 247.0
108.568039640 234.0
108.589772520 226.0
108.611505400 188.0
108.633238280 227.0
108.654971160 225.0
108.676704040 230.0
108.698436920 228.0
108.720169800 226.0
108.741902680 218.0
108.763635560 210.0
108.785368440 234.0
108.807101320 216.0
108.828834200 234.0
108.850567080 230.0
108.872299960 194.0
108.894032840 237.0
108.915765720 203.0
108.937498600 209.0
108.959231480 215.0
108.980964360 241.0
109.002697240 208.0
109.024430120 237.0
109.046163000 214.0
109.067895880 235.0
109.089628760 236.0
109.111361640 220.0
109.133094520 266.0
109.154827400 215.0
109.176560280 214.0
109.198293160 235.0
109.220026040 230.0
109.241758920 237.0
109.263491800 241.0
109.285224680 243.0
109.306957560 250.0
109.328690440 265.0
109.350423320 291.0
109.372156200 239.0
109.393889080 293.0
109.415621960 283.0
109.437354840 257.0
109.459087720 278.0
109.480820600 270.0
109.502553480 282.0
109.524286360 261.0
109.546019240 288.0
109.567752120 329.0
109.589485000 293.0
109.611217880 307.0
109.632950760 305.0
109.654683640 338.0
109.676416520 333.0
109.698149400 368.0
109.719882280 377.0
109.741615160 384.0
109.763348040 402.0
109.785080920 450.0
109.806813800 436.0
109.828546680 544.0
109.850279560 569.0
109.872012440 642.0
109.893745320 744.0
109.915478200 894.0
109.937211080 1080.0
109.958943960 1378.0
109.980676840 1722.0
110.002409720 2110.0
