[Measurement conditions]
Sample identification,NaCl_TT_500
Comment,
Anode material,Cu
K-Alpha1 wavelength,1.5405980
K-Alpha2 wavelength,1.5444260
Ratio K-Alpha2/K-Alpha1,0.500
Divergence slit,Fixed,0.76mm
Monochromator used,NO
Generator voltage, 40
Tube current,  8
File date and time,26/Jul./2022 03:28
Unit cell,
h k l, 0 0 0
Scan axis,Gonio
Scan range,5.000000000,110.013276160
Scan step size,0.0217329
No. of points, 4832
Scan type,CONTINUOUS
Time per step,49.470
[Scan points]
Angle,Intensity
5.010866440,3977.0
5.032599320,3906.0
5.054332200,3720.0
5.076065080,3828.0
5.097797960,3792.0
5.119530840,3680.0
5.141263720,3617.0
5.162996600,3505.0
5.184729480,3671.0
5.206462360,3490.0
5.228195240,3426.0
5.249928120,3521.0
5.271661000,3330.0
5.293393880,3345.0
5.315126760,3470.0
5.336859640,3271.0
5.358592520,3316.0
5.380325400,3280.0
5.402058280,3258.0
5.423791160,3207.0
5.445524040,3114.0
5.467256920,3112.0
5.488989800,3086.0
5.510722680,3172.0
5.532455560,3069.0
5.554188440,2965.0
5.575921320,2901.0
5.597654200,2911.0
5.619387080,2971.0
5.641119960,2904.0
5.662852840,2797.0
5.684585720,2771.0
5.706318600,2877.0
5.728051480,2765.0
5.749784360,2762.0
5.771517240,2803.0
5.793250120,2776.0
5.814983000,2797.0
5.836715880,2743.0
5.858448760,2691.0
5.880181640,2727.0
5.901914520,2602.0
5.923647400,2668.0
5.945380280,2550.0
5.967113160,2614.0
5.988846040,2672.0
6.010578920,2502.0
6.032311800,2539.0
6.054044680,2571.0
6.075777560,2538.0
6.097510440,2457.0
6.119243320,2512.0
6.140976200,2480.0
6.162709080,2508.0
6.184441960,2525.0
6.206174840,2442.0
6.227907720,2457.0
6.249640600,2441.0
6.271373480,2595.0
6.293106360,2454.0
6.314839240,2476.0
6.336572120,2474.0
6.358305000,2436.0
6.380037880,2463.0
6.401770760,2530.0
6.423503640,2374.0
6.445236520,2395.0
6.466969400,2480.0
6.488702280,2332.0
6.510435160,2437.0
6.532168040,2414.0
6.553900920,2366.0
6.575633800,2396.0
6.597366680,2270.0
6.619099560,2389.0
6.640832440,2337.0
6.662565320,2483.0
6.684298200,2458.0
6.706031080,2454.0
6.727763960,2395.0
6.749496840,2346.0
6.771229720,2354.0
6.792962600,2351.0
6.814695480,2380.0
6.836428360,2318.0
6.858161240,2385.0
6.879894120,2306.0
6.901627000,2325.0
6.923359880,2243.0
6.945092760,2238.0
6.966825640,2332.0
6.988558520,2366.0
7.010291400,2366.0
7.032024280,2344.0
7.053757160,2338.0
7.075490040,2309.0
7.097222920,2294.0
7.118955800,2255.0
7.140688680,2330.0
7.162421560,2239.0
7.184154440,2268.0
7.205887320,2320.0
7.227620200,2307.0
7.249353080,2253.0
7.271085960,2268.0
7.292818840,2278.0
7.314551720,2181.0
7.336284600,2233.0
7.358017480,2246.0
7.379750360,2202.0
7.401483240,2231.0
7.423216120,2226.0
7.444949000,2429.0
7.466681880,2301.0
7.488414760,2307.0
7.510147640,2141.0
7.531880520,2280.0
7.553613400,2291.0
7.575346280,2286.0
7.597079160,2283.0
7.618812040,2268.0
7.640544920,2273.0
7.662277800,2190.0
7.684010680,2267.0
7.705743560,2286.0
7.727476440,2233.0
7.749209320,2241.0
7.770942200,2261.0
7.792675080,2246.0
7.814407960,2242.0
7.836140840,2277.0
7.857873720,2351.0
7.879606600,2266.0
7.901339480,2268.0
7.923072360,2255.0
7.944805240,2196.0
7.966538120,2232.0
7.988271000,2315.0
8.010003880,2298.0
8.031736760,2272.0
8.053469640,2141.0
8.075202520,2288.0
8.096935400,2213.0
8.118668280,2260.0
8.140401160,2316.0
8.162134040,2162.0
8.183866920,2202.0
8.205599800,2255.0
8.227332680,2259.0
8.249065560,2188.0
8.270798440,2280.0
8.292531320,2149.0
8.314264200,2293.0
8.335997080,2159.0
8.357729960,2281.0
8.379462840,2312.0
8.401195720,2153.0
8.422928600,2240.0
8.444661480,2305.0
8.466394360,2228.0
8.488127240,2224.0
8.509860120,2099.0
8.531593000,2220.0
8.553325880,2286.0
8.575058760,2204.0
8.596791640,2258.0
8.618524520,2165.0
8.640257400,2247.0
8.661990280,2301.0
8.683723160,2255.0
8.705456040,2273.0
8.727188920,2210.0
8.748921800,2182.0
8.770654680,2242.0
8.792387560,2227.0
8.814120440,2197.0
8.835853320,2255.0
8.857586200,2174.0
8.879319080,2155.0
8.901051960,2282.0
8.922784840,2222.0
8.944517720,2331.0
8.966250600,2308.0
8.987983480,2218.0
9.009716360,2216.0
9.031449240,2095.0
9.053182120,2211.0
9.074915000,2357.0
9.096647880,2291.0
9.118380760,2206.0
9.140113640,2242.0
9.161846520,2255.0
9.183579400,2211.0
9.205312280,2226.0
9.227045160,2329.0
9.248778040,2227.0
9.270510920,2290.0
9.292243800,2249.0
9.313976680,2285.0
9.335709560,2235.0
9.357442440,2326.0
9.379175320,2226.0
9.400908200,2265.0
9.422641080,2287.0
9.444373960,2196.0
9.466106840,2310.0
9.487839720,2230.0
9.509572600,2280.0
9.531305480,2258.0
9.553038360,2307.0
9.574771240,2264.0
9.596504120,2285.0
9.618237000,2257.0
9.639969880,2282.0
9.661702760,2315.0
9.683435640,2231.0
9.705168520,2279.0
9.726901400,2221.0
9.748634280,2253.0
9.770367160,2227.0
9.792100040,2202.0
9.813832920,2252.0
9.835565800,2260.0
9.857298680,2267.0
9.879031560,2197.0
9.900764440,2274.0
9.922497320,2277.0
9.944230200,2295.0
9.965963080,2209.0
9.987695960,2199.0
10.009428840,2239.0
10.031161720,2264.0
10.052894600,2214.0
10.074627480,2244.0
10.096360360,2216.0
10.118093240,2286.0
10.139826120,2198.0
10.161559000,2222.0
10.183291880,2295.0
10.205024760,2275.0
10.226757640,2244.0
10.248490520,2229.0
10.270223400,2222.0
10.291956280,2350.0
10.313689160,2290.0
10.335422040,2245.0
10.357154920,2194.0
10.378887800,2271.0
10.400620680,2194.0
10.422353560,2186.0
10.444086440,2237.0
10.465819320,2255.0
10.487552200,2246.0
10.509285080,2222.0
10.531017960,2275.0
10.552750840,2245.0
10.574483720,2197.0
10.596216600,2231.0
10.617949480,2244.0
10.639682360,2285.0
10.661415240,2371.0
10.683148120,2296.0
10.704881000,2303.0
10.726613880,2286.0
10.748346760,2431.0
10.770079640,2157.0
10.791812520,2298.0
10.813545400,2302.0
10.835278280,2186.0
10.857011160,2221.0
10.878744040,2301.0
10.900476920,2263.0
10.922209800,2238.0
10.943942680,2262.0
10.965675560,2162.0
10.987408440,2172.0
11.009141320,2288.0
11.030874200,2285.0
11.052607080,2308.0
11.074339960,2267.0
11.096072840,2194.0
11.117805720,2264.0
11.139538600,2277.0
11.161271480,2248.0
11.183004360,2211.0
11.204737240,2308.0
11.226470120,2251.0
11.248203000,2265.0
11.269935880,2242.0
11.291668760,2164.0
11.313401640,2228.0
11.335134520,2373.0
11.356867400,2255.0
11.378600280,2213.0
11.400333160,2224.0
11.422066040,2242.0
11.443798920,2251.0
11.465531800,2238.0
11.487264680,2195.0
11.508997560,2230.0
11.530730440,2265.0
11.552463320,2264.0
11.574196200,2179.0
11.595929080,2294.0
11.617661960,2188.0
11.639394840,2216.0
11.661127720,2192.0
11.682860600,2166.0
11.704593480,2257.0
11.726326360,2253.0
11.748059240,2200.0
11.769792120,2202.0
11.791525000,2217.0
11.813257880,2155.0
11.834990760,2179.0
11.856723640,2225.0
11.878456520,2273.0
11.900189400,2270.0
11.921922280,2153.0
11.943655160,2146.0
11.965388040,2189.0
11.987120920,2101.0
12.008853800,2164.0
12.030586680,2167.0
12.052319560,2327.0
12.074052440,2309.0
12.095785320,2236.0
12.117518200,2189.0
12.139251080,2163.0
12.160983960,2252.0
12.182716840,2235.0
12.204449720,2264.0
12.226182600,2217.0
12.247915480,2233.0
12.269648360,2165.0
12.291381240,2163.0
12.313114120,2168.0
12.334847000,2240.0
12.356579880,2095.0
12.378312760,2153.0
12.400045640,2107.0
12.421778520,2175.0
12.443511400,2246.0
12.465244280,2228.0
12.486977160,2167.0
12.508710040,2139.0
12.530442920,2145.0
12.552175800,2180.0
12.573908680,2232.0
12.595641560,2233.0
12.617374440,2241.0
12.639107320,2121.0
12.660840200,2148.0
12.682573080,2244.0
12.704305960,2176.0
12.726038840,2145.0
12.747771720,2196.0
12.769504600,2184.0
12.791237480,2119.0
12.812970360,2096.0
12.834703240,2156.0
12.856436120,2204.0
12.878169000,2132.0
12.899901880,2195.0
12.921634760,2058.0
12.943367640,2130.0
12.965100520,2229.0
12.986833400,2053.0
13.008566280,2149.0
13.030299160,2131.0
13.052032040,2199.0
13.073764920,2119.0
13.095497800,2115.0
13.117230680,2182.0
13.138963560,2101.0
13.160696440,2134.0
13.182429320,2100.0
13.204162200,2076.0
13.225895080,2099.0
13.247627960,2069.0
13.269360840,2131.0
13.291093720,2132.0
13.312826600,2112.0
13.334559480,2086.0
13.356292360,2038.0
13.378025240,2124.0
13.399758120,1968.0
13.421491000,2075.0
13.443223880,1940.0
13.464956760,2103.0
13.486689640,2053.0
13.508422520,2017.0
13.530155400,2073.0
13.551888280,2020.0
13.573621160,2002.0
13.595354040,2124.0
13.617086920,2110.0
13.638819800,2025.0
13.660552680,1993.0
13.682285560,1992.0
13.704018440,2030.0
13.725751320,2030.0
13.747484200,2091.0
13.769217080,2069.0
13.790949960,1992.0
13.812682840,1995.0
13.834415720,2077.0
13.856148600,1987.0
13.877881480,1992.0
13.899614360,1938.0
13.921347240,2029.0
13.943080120,1954.0
13.964813000,1989.0
13.986545880,2074.0
14.008278760,2026.0
14.030011640,2053.0
14.051744520,1990.0
14.073477400,2036.0
14.095210280,1983.0
14.116943160,2088.0
14.138676040,1906.0
14.160408920,2065.0
14.182141800,2050.0
14.203874680,2046.0
14.225607560,1909.0
14.247340440,1974.0
14.269073320,1977.0
14.290806200,2013.0
14.312539080,1981.0
14.334271960,1931.0
14.356004840,1920.0
14.377737720,2019.0
14.399470600,1984.0
14.421203480,1949.0
14.442936360,1899.0
14.464669240,1879.0
14.486402120,1908.0
14.508135000,1911.0
14.529867880,1959.0
14.551600760,1926.0
14.573333640,1993.0
14.595066520,1973.0
14.616799400,1864.0
14.638532280,1965.0
14.660265160,1973.0
14.681998040,1970.0
14.703730920,1929.0
14.725463800,1958.0
14.747196680,1892.0
14.768929560,1824.0
14.790662440,1875.0
14.812395320,1943.0
14.834128200,1929.0
14.855861080,1857.0
14.877593960,1854.0
14.899326840,1865.0
14.921059720,1961.0
14.942792600,1849.0
14.964525480,1912.0
14.986258360,1930.0
15.007991240,1975.0
15.029724120,1849.0
15.051457000,1833.0
15.073189880,1913.0
15.094922760,1845.0
15.116655640,1915.0
15.138388520,1831.0
15.160121400,1787.0
15.181854280,1844.0
15.203587160,1865.0
15.225320040,1858.0
15.247052920,1900.0
15.268785800,1815.0
15.290518680,1866.0
15.312251560,1871.0
15.333984440,1865.0
15.355717320,1826.0
15.377450200,1798.0
15.399183080,1831.0
15.420915960,1840.0
15.442648840,1848.0
15.464381720,1843.0
15.486114600,1825.0
15.507847480,1812.0
15.529580360,1840.0
15.551313240,1822.0
15.573046120,1782.0
15.594779000,1796.0
15.616511880,1827.0
15.638244760,1854.0
15.659977640,1902.0
15.681710520,1792.0
15.703443400,1809.0
15.725176280,1817.0
15.746909160,1755.0
15.768642040,1814.0
15.790374920,1799.0
15.812107800,1798.0
15.833840680,1825.0
15.855573560,1801.0
15.877306440,1780.0
15.899039320,1756.0
15.920772200,1797.0
15.942505080,1783.0
15.964237960,1761.0
15.985970840,1764.0
16.007703720,1780.0
16.029436600,1755.0
16.051169480,1809.0
16.072902360,1779.0
16.094635240,1679.0
16.116368120,1698.0
16.138101000,1795.0
16.159833880,1813.0
16.181566760,1739.0
16.203299640,1715.0
16.225032520,1695.0
16.246765400,1615.0
16.268498280,1765.0
16.290231160,1647.0
16.311964040,1636.0
16.333696920,1703.0
16.355429800,1702.0
16.377162680,1783.0
16.398895560,1653.0
16.420628440,1707.0
16.442361320,1680.0
16.464094200,1727.0
16.485827080,1646.0
16.507559960,1701.0
16.529292840,1647.0
16.551025720,1663.0
16.572758600,1681.0
16.594491480,1628.0
16.616224360,1611.0
16.637957240,1661.0
16.659690120,1705.0
16.681423000,1731.0
16.703155880,1593.0
16.724888760,1628.0
16.746621640,1508.0
16.768354520,1602.0
16.790087400,1627.0
16.811820280,1654.0
16.833553160,1635.0
16.855286040,1608.0
16.877018920,1645.0
16.898751800,1613.0
16.920484680,1612.0
16.942217560,1633.0
16.963950440,1577.0
16.985683320,1540.0
17.007416200,1562.0
17.029149080,1576.0
17.050881960,1613.0
17.072614840,1548.0
17.094347720,1646.0
17.116080600,1610.0
17.137813480,1655.0
17.159546360,1607.0
17.181279240,1582.0
17.203012120,1592.0
17.224745000,1617.0
17.246477880,1510.0
17.268210760,1610.0
17.289943640,1648.0
17.311676520,1580.0
17.333409400,1668.0
17.355142280,1610.0
17.376875160,1560.0
17.398608040,1570.0
17.420340920,1609.0
17.442073800,1560.0
17.463806680,1641.0
17.485539560,1519.0
17.507272440,1548.0
17.529005320,1658.0
17.550738200,1579.0
17.572471080,1603.0
17.594203960,1530.0
17.615936840,1573.0
17.637669720,1539.0
17.659402600,1549.0
17.681135480,1544.0
17.702868360,1620.0
17.724601240,1574.0
17.746334120,1564.0
17.768067000,1602.0
17.789799880,1476.0
17.811532760,1560.0
17.833265640,1522.0
17.854998520,1478.0
17.876731400,1494.0
17.898464280,1561.0
17.920197160,1529.0
17.941930040,1404.0
17.963662920,1470.0
17.985395800,1496.0
18.007128680,1490.0
18.028861560,1525.0
18.050594440,1454.0
18.072327320,1458.0
18.094060200,1423.0
18.115793080,1411.0
18.137525960,1398.0
18.159258840,1436.0
18.180991720,1429.0
18.202724600,1528.0
18.224457480,1408.0
18.246190360,1450.0
18.267923240,1427.0
18.289656120,1486.0
18.311389000,1400.0
18.333121880,1489.0
18.354854760,1470.0
18.376587640,1418.0
18.398320520,1497.0
18.420053400,1450.0
18.441786280,1463.0
18.463519160,1489.0
18.485252040,1410.0
18.506984920,1415.0
18.528717800,1435.0
18.550450680,1479.0
18.572183560,1443.0
18.593916440,1404.0
18.615649320,1369.0
18.637382200,1393.0
18.659115080,1428.0
18.680847960,1428.0
18.702580840,1451.0
18.724313720,1427.0
18.746046600,1418.0
18.767779480,1458.0
18.789512360,1440.0
18.811245240,1426.0
18.832978120,1409.0
18.854711000,1448.0
18.876443880,1375.0
18.898176760,1348.0
18.919909640,1422.0
18.941642520,1448.0
18.963375400,1415.0
18.985108280,1379.0
19.006841160,1324.0
19.028574040,1360.0
19.050306920,1458.0
19.072039800,1382.0
19.093772680,1322.0
19.115505560,1347.0
19.137238440,1306.0
19.158971320,1404.0
19.180704200,1393.0
19.202437080,1375.0
19.224169960,1377.0
19.245902840,1313.0
19.267635720,1387.0
19.289368600,1347.0
19.311101480,1376.0
19.332834360,1354.0
19.354567240,1377.0
19.376300120,1310.0
19.398033000,1401.0
19.419765880,1373.0
19.441498760,1375.0
19.463231640,1349.0
19.484964520,1353.0
19.506697400,1398.0
19.528430280,1314.0
19.550163160,1417.0
19.571896040,1371.0
19.593628920,1304.0
19.615361800,1279.0
19.637094680,1267.0
19.658827560,1457.0
19.680560440,1342.0
19.702293320,1335.0
19.724026200,1356.0
19.745759080,1333.0
19.767491960,1308.0
19.789224840,1330.0
19.810957720,1327.0
19.832690600,1227.0
19.854423480,1262.0
19.876156360,1318.0
19.897889240,1277.0
19.919622120,1324.0
19.941355000,1335.0
19.963087880,1323.0
19.984820760,1310.0
20.006553640,1265.0
20.028286520,1346.0
20.050019400,1256.0
20.071752280,1290.0
20.093485160,1313.0
20.115218040,1290.0
20.136950920,1335.0
20.158683800,1361.0
20.180416680,1320.0
20.202149560,1334.0
20.223882440,1218.0
20.245615320,1237.0
20.267348200,1275.0
20.289081080,1295.0
20.310813960,1257.0
20.332546840,1293.0
20.354279720,1290.0
20.376012600,1278.0
20.397745480,1200.0
20.419478360,1221.0
20.441211240,1299.0
20.462944120,1221.0
20.484677000,1226.0
20.506409880,1317.0
20.528142760,1267.0
20.549875640,1216.0
20.571608520,1239.0
20.593341400,1338.0
20.615074280,1233.0
20.636807160,1259.0
20.658540040,1252.0
20.680272920,1298.0
20.702005800,1284.0
20.723738680,1228.0
20.745471560,1241.0
20.767204440,1213.0
20.788937320,1217.0
20.810670200,1226.0
20.832403080,1228.0
20.854135960,1267.0
20.875868840,1224.0
20.897601720,1187.0
20.919334600,1185.0
20.941067480,1230.0
20.962800360,1185.0
20.984533240,1173.0
21.006266120,1175.0
21.027999000,1230.0
21.049731880,1197.0
21.071464760,1150.0
21.093197640,1191.0
21.114930520,1191.0
21.136663400,1180.0
21.158396280,1140.0
21.180129160,1205.0
21.201862040,1146.0
21.223594920,1198.0
21.245327800,1119.0
21.267060680,1196.0
21.288793560,1138.0
21.310526440,1153.0
21.332259320,1169.0
21.353992200,1186.0
21.375725080,1161.0
21.397457960,1159.0
21.419190840,1147.0
21.440923720,1111.0
21.462656600,1166.0
21.484389480,1146.0
21.506122360,1110.0
21.527855240,1149.0
21.549588120,1142.0
21.571321000,1189.0
21.593053880,1180.0
21.614786760,1166.0
21.636519640,1107.0
21.658252520,1141.0
21.679985400,1097.0
21.701718280,1124.0
21.723451160,1104.0
21.745184040,1129.0
21.766916920,1069.0
21.788649800,1127.0
21.810382680,1093.0
21.832115560,1035.0
21.853848440,1067.0
21.875581320,1095.0
21.897314200,1102.0
21.919047080,1151.0
21.940779960,1129.0
21.962512840,1116.0
21.984245720,1109.0
22.005978600,1105.0
22.027711480,1099.0
22.049444360,1107.0
22.071177240,1134.0
22.092910120,1062.0
22.114643000,1058.0
22.136375880,1147.0
22.158108760,1100.0
22.179841640,1081.0
22.201574520,1086.0
22.223307400,1079.0
22.245040280,1120.0
22.266773160,1077.0
22.288506040,1051.0
22.310238920,1048.0
22.331971800,1107.0
22.353704680,1031.0
22.375437560,1054.0
22.397170440,1080.0
22.418903320,999.0
22.440636200,1063.0
22.462369080,1084.0
22.484101960,1068.0
22.505834840,1090.0
22.527567720,1000.0
22.549300600,1001.0
22.571033480,1071.0
22.592766360,1052.0
22.614499240,1004.0
22.636232120,1002.0
22.657965000,1032.0
22.679697880,1103.0
22.701430760,1045.0
22.723163640,992.0
22.744896520,998.0
22.766629400,1007.0
22.788362280,1021.0
22.810095160,947.0
22.831828040,1031.0
22.853560920,1051.0
22.875293800,1016.0
22.897026680,989.0
22.918759560,1027.0
22.940492440,1076.0
22.962225320,1090.0
22.983958200,1062.0
23.005691080,1033.0
23.027423960,1034.0
23.049156840,1034.0
23.070889720,1020.0
23.092622600,1001.0
23.114355480,1051.0
23.136088360,1037.0
23.157821240,1020.0
23.179554120,1017.0
23.201287000,935.0
23.223019880,1003.0
23.244752760,1031.0
23.266485640,1031.0
23.288218520,958.0
23.309951400,929.0
23.331684280,972.0
23.353417160,1012.0
23.375150040,961.0
23.396882920,1024.0
23.418615800,919.0
23.440348680,967.0
23.462081560,1043.0
23.483814440,1011.0
23.505547320,972.0
23.527280200,964.0
23.549013080,920.0
23.570745960,927.0
23.592478840,897.0
23.614211720,972.0
23.635944600,912.0
23.657677480,930.0
23.679410360,1014.0
23.701143240,929.0
23.722876120,963.0
23.744609000,943.0
23.766341880,994.0
23.788074760,944.0
23.809807640,944.0
23.831540520,990.0
23.853273400,992.0
23.875006280,962.0
23.896739160,935.0
23.918472040,904.0
23.940204920,947.0
23.961937800,922.0
23.983670680,851.0
24.005403560,894.0
24.027136440,931.0
24.048869320,916.0
24.070602200,935.0
24.092335080,925.0
24.114067960,924.0
24.135800840,882.0
24.157533720,927.0
24.179266600,935.0
24.200999480,924.0
24.222732360,927.0
24.244465240,906.0
24.266198120,880.0
24.287931000,912.0
24.309663880,889.0
24.331396760,881.0
24.353129640,907.0
24.374862520,934.0
24.396595400,824.0
24.418328280,918.0
24.440061160,869.0
24.461794040,850.0
24.483526920,917.0
24.505259800,836.0
24.526992680,870.0
24.548725560,920.0
24.570458440,910.0
24.592191320,875.0
24.613924200,888.0
24.635657080,895.0
24.657389960,892.0
24.679122840,891.0
24.700855720,939.0
24.722588600,855.0
24.744321480,855.0
24.766054360,830.0
24.787787240,850.0
24.809520120,855.0
24.831253000,904.0
24.852985880,869.0
24.874718760,895.0
24.896451640,873.0
24.918184520,902.0
24.939917400,935.0
24.961650280,834.0
24.983383160,837.0
25.005116040,863.0
25.026848920,894.0
25.048581800,874.0
25.070314680,895.0
25.092047560,892.0
25.113780440,847.0
25.135513320,860.0
25.157246200,851.0
25.178979080,903.0
25.200711960,842.0
25.222444840,975.0
25.244177720,914.0
25.265910600,972.0
25.287643480,982.0
25.309376360,995.0
25.331109240,1006.0
25.352842120,1224.0
25.374575000,1247.0
25.396307880,1469.0
25.418040760,1751.0
25.439773640,2045.0
25.461506520,2390.0
25.483239400,2379.0
25.504972280,2256.0
25.526705160,2054.0
25.548438040,1697.0
25.570170920,1424.0
25.591903800,1252.0
25.613636680,1033.0
25.635369560,928.0
25.657102440,912.0
25.678835320,941.0
25.700568200,828.0
25.722301080,848.0
25.744033960,819.0
25.765766840,885.0
25.787499720,858.0
25.809232600,774.0
25.830965480,782.0
25.852698360,806.0
25.874431240,795.0
25.896164120,770.0
25.917897000,805.0
25.939629880,831.0
25.961362760,883.0
25.983095640,819.0
26.004828520,835.0
26.026561400,809.0
26.048294280,828.0
26.070027160,858.0
26.091760040,805.0
26.113492920,823.0
26.135225800,821.0
26.156958680,783.0
26.178691560,826.0
26.200424440,774.0
26.222157320,758.0
26.243890200,788.0
26.265623080,774.0
26.287355960,800.0
26.309088840,796.0
26.330821720,781.0
26.352554600,838.0
26.374287480,808.0
26.396020360,826.0
26.417753240,814.0
26.439486120,767.0
26.461219000,849.0
26.482951880,799.0
26.504684760,865.0
26.526417640,817.0
26.548150520,733.0
26.569883400,790.0
26.591616280,816.0
26.613349160,839.0
26.635082040,785.0
26.656814920,839.0
26.678547800,750.0
26.700280680,794.0
26.722013560,799.0
26.743746440,803.0
26.765479320,794.0
26.787212200,791.0
26.808945080,774.0
26.830677960,757.0
26.852410840,780.0
26.874143720,744.0
26.895876600,808.0
26.917609480,844.0
26.939342360,778.0
26.961075240,817.0
26.982808120,770.0
27.004541000,817.0
27.026273880,794.0
27.048006760,794.0
27.069739640,828.0
27.091472520,871.0
27.113205400,856.0
27.134938280,923.0
27.156671160,955.0
27.178404040,957.0
27.200136920,1036.0
27.221869800,1101.0
27.243602680,1248.0
27.265335560,1437.0
27.287068440,1765.0
27.308801320,2139.0
27.330534200,2842.0
27.352267080,3735.0
27.373999960,4535.0
27.395732840,4620.0
27.417465720,4246.0
27.439198600,3538.0
27.460931480,3057.0
27.482664360,2382.0
27.504397240,1720.0
27.526130120,1254.0
27.547863000,1011.0
27.569595880,960.0
27.591328760,921.0
27.613061640,850.0
27.634794520,841.0
27.656527400,853.0
27.678260280,879.0
27.699993160,775.0
27.721726040,841.0
27.743458920,808.0
27.765191800,787.0
27.786924680,760.0
27.808657560,782.0
27.830390440,743.0
27.852123320,733.0
27.873856200,766.0
27.895589080,784.0
27.917321960,747.0
27.939054840,772.0
27.960787720,721.0
27.982520600,708.0
28.004253480,712.0
28.025986360,766.0
28.047719240,724.0
28.069452120,741.0
28.091185000,697.0
28.112917880,721.0
28.134650760,703.0
28.156383640,709.0
28.178116520,669.0
28.199849400,771.0
28.221582280,734.0
28.243315160,726.0
28.265048040,712.0
28.286780920,798.0
28.308513800,698.0
28.330246680,765.0
28.351979560,740.0
28.373712440,757.0
28.395445320,739.0
28.417178200,754.0
28.438911080,823.0
28.460643960,772.0
28.482376840,818.0
28.504109720,881.0
28.525842600,1004.0
28.547575480,1014.0
28.569308360,1208.0
28.591041240,1345.0
28.612774120,1389.0
28.634507000,1234.0
28.656239880,994.0
28.677972760,897.0
28.699705640,866.0
28.721438520,818.0
28.743171400,783.0
28.764904280,765.0
28.786637160,695.0
28.808370040,690.0
28.830102920,725.0
28.851835800,702.0
28.873568680,740.0
28.895301560,699.0
28.917034440,729.0
28.938767320,804.0
28.960500200,769.0
28.982233080,761.0
29.003965960,729.0
29.025698840,734.0
29.047431720,669.0
29.069164600,759.0
29.090897480,725.0
29.112630360,718.0
29.134363240,750.0
29.156096120,733.0
29.177829000,666.0
29.199561880,733.0
29.221294760,699.0
29.243027640,693.0
29.264760520,743.0
29.286493400,769.0
29.308226280,727.0
29.329959160,719.0
29.351692040,680.0
29.373424920,712.0
29.395157800,731.0
29.416890680,715.0
29.438623560,699.0
29.460356440,719.0
29.482089320,728.0
29.503822200,664.0
29.525555080,651.0
29.547287960,723.0
29.569020840,659.0
29.590753720,765.0
29.612486600,741.0
29.634219480,677.0
29.655952360,713.0
29.677685240,727.0
29.699418120,666.0
29.721151000,761.0
29.742883880,709.0
29.764616760,673.0
29.786349640,677.0
29.808082520,716.0
29.829815400,741.0
29.851548280,718.0
29.873281160,670.0
29.895014040,757.0
29.916746920,665.0
29.938479800,768.0
29.960212680,710.0
29.981945560,704.0
30.003678440,713.0
30.025411320,726.0
30.047144200,740.0
30.068877080,714.0
30.090609960,688.0
30.112342840,701.0
30.134075720,696.0
30.155808600,718.0
30.177541480,687.0
30.199274360,722.0
30.221007240,767.0
30.242740120,755.0
30.264473000,679.0
30.286205880,740.0
30.307938760,745.0
30.329671640,719.0
30.351404520,695.0
30.373137400,726.0
30.394870280,745.0
30.416603160,703.0
30.438336040,735.0
30.460068920,737.0
30.481801800,793.0
30.503534680,789.0
30.525267560,770.0
30.547000440,865.0
30.568733320,837.0
30.590466200,927.0
30.612199080,1010.0
30.633931960,1105.0
30.655664840,1135.0
30.677397720,1176.0
30.699130600,1141.0
30.720863480,1233.0
30.742596360,1217.0
30.764329240,1176.0
30.786062120,1255.0
30.807795000,1167.0
30.829527880,1229.0
30.851260760,1208.0
30.872993640,1254.0
30.894726520,1273.0
30.916459400,1320.0
30.938192280,1292.0
30.959925160,1245.0
30.981658040,1317.0
31.003390920,1264.0
31.025123800,1302.0
31.046856680,1333.0
31.068589560,1330.0
31.090322440,1354.0
31.112055320,1425.0
31.133788200,1430.0
31.155521080,1538.0
31.177253960,1599.0
31.198986840,1621.0
31.220719720,1829.0
31.242452600,2017.0
31.264185480,2207.0
31.285918360,2421.0
31.307651240,2704.0
31.329384120,2979.0
31.351117000,3042.0
31.372849880,3455.0
31.394582760,3497.0
31.416315640,3750.0
31.438048520,4012.0
31.459781400,4160.0
31.481514280,4818.0
31.503247160,5581.0
31.524980040,6885.0
31.546712920,9156.0
31.568445800,12157.0
31.590178680,16984.0
31.611911560,24865.0
31.633644440,37090.0
31.655377320,57087.0
31.677110200,88580.0
31.698843080,130912.0
31.720575960,171291.0
31.742308840,173601.0
31.764041720,137229.0
31.785774600,108754.0
31.807507480,97767.0
31.829240360,77391.0
31.850973240,46322.0
31.872706120,23294.0
31.894439000,12953.0
31.916171880,8807.0
31.937904760,6570.0
31.959637640,5467.0
31.981370520,4762.0
32.003103400,4260.0
32.024836280,3859.0
32.046569160,3522.0
32.068302040,3195.0
32.090034920,2727.0
32.111767800,2506.0
32.133500680,2174.0
32.155233560,1954.0
32.176966440,1757.0
32.198699320,1684.0
32.220432200,1541.0
32.242165080,1411.0
32.263897960,1386.0
32.285630840,1346.0
32.307363720,1326.0
32.329096600,1268.0
32.350829480,1198.0
32.372562360,1258.0
32.394295240,1211.0
32.416028120,1233.0
32.437761000,1207.0
32.459493880,1184.0
32.481226760,1154.0
32.502959640,1123.0
32.524692520,1116.0
32.546425400,1129.0
32.568158280,1088.0
32.589891160,1140.0
32.611624040,1127.0
32.633356920,1058.0
32.655089800,1096.0
32.676822680,1043.0
32.698555560,1009.0
32.720288440,1023.0
32.742021320,1049.0
32.763754200,1020.0
32.785487080,958.0
32.807219960,1039.0
32.828952840,1002.0
32.850685720,960.0
32.872418600,988.0
32.894151480,1008.0
32.915884360,905.0
32.937617240,968.0
32.959350120,953.0
32.981083000,992.0
33.002815880,918.0
33.024548760,950.0
33.046281640,919.0
33.068014520,951.0
33.089747400,927.0
33.111480280,956.0
33.133213160,904.0
33.154946040,873.0
33.176678920,874.0
33.198411800,900.0
33.220144680,927.0
33.241877560,943.0
33.263610440,861.0
33.285343320,863.0
33.307076200,860.0
33.328809080,889.0
33.350541960,849.0
33.372274840,938.0
33.394007720,910.0
33.415740600,860.0
33.437473480,857.0
33.459206360,855.0
33.480939240,888.0
33.502672120,825.0
33.524405000,837.0
33.546137880,794.0
33.567870760,826.0
33.589603640,816.0
33.611336520,836.0
33.633069400,859.0
33.654802280,846.0
33.676535160,812.0
33.698268040,758.0
33.720000920,788.0
33.741733800,843.0
33.763466680,840.0
33.785199560,839.0
33.806932440,791.0
33.828665320,846.0
33.850398200,794.0
33.872131080,791.0
33.893863960,792.0
33.915596840,866.0
33.937329720,819.0
33.959062600,778.0
33.980795480,718.0
34.002528360,773.0
34.024261240,737.0
34.045994120,761.0
34.067727000,847.0
34.089459880,799.0
34.111192760,707.0
34.132925640,797.0
34.154658520,786.0
34.176391400,772.0
34.198124280,780.0
34.219857160,766.0
34.241590040,790.0
34.263322920,767.0
34.285055800,757.0
34.306788680,691.0
34.328521560,794.0
34.350254440,757.0
34.371987320,751.0
34.393720200,714.0
34.415453080,766.0
34.437185960,755.0
34.458918840,688.0
34.480651720,768.0
34.502384600,758.0
34.524117480,723.0
34.545850360,754.0
34.567583240,735.0
34.589316120,723.0
34.611049000,799.0
34.632781880,793.0
34.654514760,771.0
34.676247640,773.0
34.697980520,735.0
34.719713400,709.0
34.741446280,751.0
34.763179160,735.0
34.784912040,784.0
34.806644920,781.0
34.828377800,738.0
34.850110680,692.0
34.871843560,726.0
34.893576440,690.0
34.915309320,756.0
34.937042200,722.0
34.958775080,713.0
34.980507960,665.0
35.002240840,699.0
35.023973720,720.0
35.045706600,708.0
35.067439480,710.0
35.089172360,697.0
35.110905240,633.0
35.132638120,672.0
35.154371000,715.0
35.176103880,719.0
35.197836760,771.0
35.219569640,732.0
35.241302520,691.0
35.263035400,686.0
35.284768280,695.0
35.306501160,647.0
35.328234040,629.0
35.349966920,602.0
35.371699800,628.0
35.393432680,638.0
35.415165560,648.0
35.436898440,638.0
35.458631320,588.0
35.480364200,657.0
35.502097080,682.0
35.523829960,610.0
35.545562840,651.0
35.567295720,630.0
35.589028600,606.0
35.610761480,649.0
35.632494360,581.0
35.654227240,577.0
35.675960120,639.0
35.697693000,624.0
35.719425880,590.0
35.741158760,587.0
35.762891640,602.0
35.784624520,622.0
35.806357400,633.0
35.828090280,585.0
35.849823160,620.0
35.871556040,601.0
35.893288920,586.0
35.915021800,608.0
35.936754680,621.0
35.958487560,614.0
35.980220440,588.0
36.001953320,630.0
36.023686200,592.0
36.045419080,632.0
36.067151960,602.0
36.088884840,614.0
36.110617720,595.0
36.132350600,637.0
36.154083480,564.0
36.175816360,625.0
36.197549240,610.0
36.219282120,636.0
36.241015000,672.0
36.262747880,597.0
36.284480760,639.0
36.306213640,647.0
36.327946520,706.0
36.349679400,655.0
36.371412280,688.0
36.393145160,639.0
36.414878040,627.0
36.436610920,605.0
36.458343800,606.0
36.480076680,598.0
36.501809560,554.0
36.523542440,578.0
36.545275320,599.0
36.567008200,540.0
36.588741080,609.0
36.610473960,570.0
36.632206840,608.0
36.653939720,539.0
36.675672600,522.0
36.697405480,598.0
36.719138360,593.0
36.740871240,574.0
36.762604120,558.0
36.784337000,591.0
36.806069880,542.0
36.827802760,568.0
36.849535640,516.0
36.871268520,563.0
36.893001400,560.0
36.914734280,525.0
36.936467160,536.0
36.958200040,574.0
36.979932920,547.0
37.001665800,516.0
37.023398680,485.0
37.045131560,553.0
37.066864440,592.0
37.088597320,549.0
37.110330200,532.0
37.132063080,484.0
37.153795960,519.0
37.175528840,550.0
37.197261720,568.0
37.218994600,519.0
37.240727480,583.0
37.262460360,526.0
37.284193240,552.0
37.305926120,495.0
37.327659000,526.0
37.349391880,531.0
37.371124760,547.0
37.392857640,591.0
37.414590520,535.0
37.436323400,528.0
37.458056280,540.0
37.479789160,526.0
37.501522040,489.0
37.523254920,519.0
37.544987800,533.0
37.566720680,536.0
37.588453560,530.0
37.610186440,503.0
37.631919320,523.0
37.653652200,497.0
37.675385080,525.0
37.697117960,550.0
37.718850840,497.0
37.740583720,525.0
37.762316600,465.0
37.784049480,484.0
37.805782360,518.0
37.827515240,552.0
37.849248120,485.0
37.870981000,510.0
37.892713880,481.0
37.914446760,520.0
37.936179640,513.0
37.957912520,482.0
37.979645400,474.0
38.001378280,476.0
38.023111160,506.0
38.044844040,521.0
38.066576920,487.0
38.088309800,465.0
38.110042680,476.0
38.131775560,452.0
38.153508440,486.0
38.175241320,507.0
38.196974200,567.0
38.218707080,508.0
38.240439960,509.0
38.262172840,512.0
38.283905720,468.0
38.305638600,509.0
38.327371480,504.0
38.349104360,516.0
38.370837240,530.0
38.392570120,491.0
38.414303000,513.0
38.436035880,468.0
38.457768760,487.0
38.479501640,461.0
38.501234520,475.0
38.522967400,538.0
38.544700280,504.0
38.566433160,548.0
38.588166040,599.0
38.609898920,572.0
38.631631800,633.0
38.653364680,702.0
38.675097560,687.0
38.696830440,687.0
38.718563320,607.0
38.740296200,529.0
38.762029080,589.0
38.783761960,565.0
38.805494840,569.0
38.827227720,557.0
38.848960600,494.0
38.870693480,507.0
38.892426360,466.0
38.914159240,492.0
38.935892120,484.0
38.957625000,462.0
38.979357880,454.0
39.001090760,464.0
39.022823640,464.0
39.044556520,442.0
39.066289400,487.0
39.088022280,450.0
39.109755160,455.0
39.131488040,453.0
39.153220920,493.0
39.174953800,454.0
39.196686680,469.0
39.218419560,452.0
39.240152440,422.0
39.261885320,468.0
39.283618200,525.0
39.305351080,464.0
39.327083960,465.0
39.348816840,490.0
39.370549720,477.0
39.392282600,456.0
39.414015480,436.0
39.435748360,452.0
39.457481240,459.0
39.479214120,446.0
39.500947000,428.0
39.522679880,431.0
39.544412760,410.0
39.566145640,466.0
39.587878520,455.0
39.609611400,443.0
39.631344280,431.0
39.653077160,444.0
39.674810040,440.0
39.696542920,442.0
39.718275800,446.0
39.740008680,443.0
39.761741560,452.0
39.783474440,426.0
39.805207320,431.0
39.826940200,425.0
39.848673080,440.0
39.870405960,452.0
39.892138840,448.0
39.913871720,456.0
39.935604600,435.0
39.957337480,471.0
39.979070360,460.0
40.000803240,444.0
40.022536120,480.0
40.044269000,484.0
40.066001880,457.0
40.087734760,448.0
40.109467640,432.0
40.131200520,462.0
40.152933400,443.0
40.174666280,439.0
40.196399160,429.0
40.218132040,429.0
40.239864920,451.0
40.261597800,424.0
40.283330680,427.0
40.305063560,433.0
40.326796440,431.0
40.348529320,394.0
40.370262200,401.0
40.391995080,401.0
40.413727960,450.0
40.435460840,424.0
40.457193720,456.0
40.478926600,467.0
40.500659480,418.0
40.522392360,437.0
40.544125240,413.0
40.565858120,436.0
40.587591000,452.0
40.609323880,428.0
40.631056760,444.0
40.652789640,431.0
40.674522520,459.0
40.696255400,392.0
40.717988280,440.0
40.739721160,479.0
40.761454040,503.0
40.783186920,556.0
40.804919800,621.0
40.826652680,652.0
40.848385560,686.0
40.870118440,740.0
40.891851320,665.0
40.913584200,633.0
40.935317080,655.0
40.957049960,566.0
40.978782840,512.0
41.000515720,491.0
41.022248600,460.0
41.043981480,460.0
41.065714360,420.0
41.087447240,464.0
41.109180120,407.0
41.130913000,388.0
41.152645880,433.0
41.174378760,410.0
41.196111640,403.0
41.217844520,420.0
41.239577400,430.0
41.261310280,399.0
41.283043160,436.0
41.304776040,462.0
41.326508920,481.0
41.348241800,504.0
41.369974680,468.0
41.391707560,502.0
41.413440440,452.0
41.435173320,497.0
41.456906200,478.0
41.478639080,455.0
41.500371960,449.0
41.522104840,480.0
41.543837720,387.0
41.565570600,406.0
41.587303480,407.0
41.609036360,427.0
41.630769240,376.0
41.652502120,384.0
41.674235000,415.0
41.695967880,461.0
41.717700760,409.0
41.739433640,409.0
41.761166520,358.0
41.782899400,416.0
41.804632280,400.0
41.826365160,383.0
41.848098040,424.0
41.869830920,405.0
41.891563800,357.0
41.913296680,441.0
41.935029560,401.0
41.956762440,378.0
41.978495320,388.0
42.000228200,411.0
42.021961080,408.0
42.043693960,423.0
42.065426840,403.0
42.087159720,401.0
42.108892600,386.0
42.130625480,403.0
42.152358360,386.0
42.174091240,398.0
42.195824120,411.0
42.217557000,434.0
42.239289880,382.0
42.261022760,423.0
42.282755640,416.0
42.304488520,357.0
42.326221400,372.0
42.347954280,418.0
42.369687160,372.0
42.391420040,377.0
42.413152920,393.0
42.434885800,389.0
42.456618680,382.0
42.478351560,413.0
42.500084440,379.0
42.521817320,414.0
42.543550200,370.0
42.565283080,343.0
42.587015960,363.0
42.608748840,440.0
42.630481720,375.0
42.652214600,399.0
42.673947480,385.0
42.695680360,389.0
42.717413240,385.0
42.739146120,371.0
42.760879000,396.0
42.782611880,386.0
42.804344760,383.0
42.826077640,425.0
42.847810520,396.0
42.869543400,405.0
42.891276280,410.0
42.913009160,387.0
42.934742040,395.0
42.956474920,406.0
42.978207800,431.0
42.999940680,395.0
43.021673560,405.0
43.043406440,451.0
43.065139320,398.0
43.086872200,426.0
43.108605080,397.0
43.130337960,401.0
43.152070840,389.0
43.173803720,373.0
43.195536600,383.0
43.217269480,430.0
43.239002360,400.0
43.260735240,387.0
43.282468120,411.0
43.304201000,460.0
43.325933880,444.0
43.347666760,450.0
43.369399640,472.0
43.391132520,398.0
43.412865400,435.0
43.434598280,397.0
43.456331160,386.0
43.478064040,394.0
43.499796920,424.0
43.521529800,403.0
43.543262680,363.0
43.564995560,365.0
43.586728440,379.0
43.608461320,418.0
43.630194200,370.0
43.651927080,414.0
43.673659960,407.0
43.695392840,372.0
43.717125720,411.0
43.738858600,371.0
43.760591480,387.0
43.782324360,404.0
43.804057240,396.0
43.825790120,412.0
43.847523000,507.0
43.869255880,495.0
43.890988760,460.0
43.912721640,412.0
43.934454520,459.0
43.956187400,487.0
43.977920280,443.0
43.999653160,437.0
44.021386040,481.0
44.043118920,475.0
44.064851800,448.0
44.086584680,472.0
44.108317560,461.0
44.130050440,411.0
44.151783320,436.0
44.173516200,436.0
44.195249080,446.0
44.216981960,455.0
44.238714840,422.0
44.260447720,481.0
44.282180600,457.0
44.303913480,451.0
44.325646360,513.0
44.347379240,460.0
44.369112120,484.0
44.390845000,455.0
44.412577880,435.0
44.434310760,494.0
44.456043640,475.0
44.477776520,439.0
44.499509400,462.0
44.521242280,447.0
44.542975160,518.0
44.564708040,522.0
44.586440920,510.0
44.608173800,466.0
44.629906680,479.0
44.651639560,468.0
44.673372440,512.0
44.695105320,530.0
44.716838200,504.0
44.738571080,478.0
44.760303960,483.0
44.782036840,512.0
44.803769720,531.0
44.825502600,533.0
44.847235480,569.0
44.868968360,575.0
44.890701240,561.0
44.912434120,581.0
44.934167000,611.0
44.955899880,621.0
44.977632760,634.0
44.999365640,701.0
45.021098520,767.0
45.042831400,789.0
45.064564280,808.0
45.086297160,898.0
45.108030040,912.0
45.129762920,1025.0
45.151495800,1068.0
45.173228680,1275.0
45.194961560,1335.0
45.216694440,1591.0
45.238427320,1677.0
45.260160200,1939.0
45.281893080,2365.0
45.303625960,2995.0
45.325358840,4034.0
45.347091720,5469.0
45.368824600,8306.0
45.390557480,11969.0
45.412290360,17881.0
45.434023240,24865.0
45.455756120,30360.0
45.477489000,29022.0
45.499221880,23326.0
45.520954760,18399.0
45.542687640,16737.0
45.564420520,17471.0
45.586153400,17007.0
45.607886280,13679.0
45.629619160,9153.0
45.651352040,6078.0
45.673084920,4006.0
45.694817800,3021.0
45.716550680,2368.0
45.738283560,1880.0
45.760016440,1618.0
45.781749320,1327.0
45.803482200,1121.0
45.825215080,1069.0
45.846947960,929.0
45.868680840,819.0
45.890413720,797.0
45.912146600,797.0
45.933879480,693.0
45.955612360,672.0
45.977345240,520.0
45.999078120,580.0
46.020811000,552.0
46.042543880,528.0
46.064276760,548.0
46.086009640,477.0
46.107742520,512.0
46.129475400,518.0
46.151208280,484.0
46.172941160,530.0
46.194674040,521.0
46.216406920,527.0
46.238139800,513.0
46.259872680,481.0
46.281605560,457.0
46.303338440,469.0
46.325071320,463.0
46.346804200,435.0
46.368537080,463.0
46.390269960,414.0
46.412002840,432.0
46.433735720,445.0
46.455468600,468.0
46.477201480,431.0
46.498934360,444.0
46.520667240,444.0
46.542400120,446.0
46.564133000,440.0
46.585865880,398.0
46.607598760,428.0
46.629331640,405.0
46.651064520,402.0
46.672797400,438.0
46.694530280,407.0
46.716263160,430.0
46.737996040,472.0
46.759728920,415.0
46.781461800,443.0
46.803194680,440.0
46.824927560,406.0
46.846660440,436.0
46.868393320,440.0
46.890126200,425.0
46.911859080,425.0
46.933591960,415.0
46.955324840,444.0
46.977057720,401.0
46.998790600,436.0
47.020523480,427.0
47.042256360,453.0
47.063989240,428.0
47.085722120,379.0
47.107455000,403.0
47.129187880,351.0
47.150920760,376.0
47.172653640,423.0
47.194386520,418.0
47.216119400,376.0
47.237852280,390.0
47.259585160,409.0
47.281318040,354.0
47.303050920,369.0
47.324783800,426.0
47.346516680,396.0
47.368249560,387.0
47.389982440,361.0
47.411715320,377.0
47.433448200,394.0
47.455181080,354.0
47.476913960,393.0
47.498646840,363.0
47.520379720,407.0
47.542112600,388.0
47.563845480,403.0
47.585578360,398.0
47.607311240,377.0
47.629044120,406.0
47.650777000,369.0
47.672509880,403.0
47.694242760,353.0
47.715975640,362.0
47.737708520,389.0
47.759441400,379.0
47.781174280,358.0
47.802907160,366.0
47.824640040,388.0
47.846372920,373.0
47.868105800,347.0
47.889838680,354.0
47.911571560,418.0
47.933304440,369.0
47.955037320,326.0
47.976770200,359.0
47.998503080,336.0
48.020235960,343.0
48.041968840,365.0
48.063701720,364.0
48.085434600,379.0
48.107167480,355.0
48.128900360,372.0
48.150633240,379.0
48.172366120,349.0
48.194099000,359.0
48.215831880,381.0
48.237564760,373.0
48.259297640,370.0
48.281030520,345.0
48.302763400,334.0
48.324496280,329.0
48.346229160,333.0
48.367962040,382.0
48.389694920,373.0
48.411427800,372.0
48.433160680,344.0
48.454893560,356.0
48.476626440,364.0
48.498359320,341.0
48.520092200,395.0
48.541825080,305.0
48.563557960,374.0
48.585290840,329.0
48.607023720,351.0
48.628756600,383.0
48.650489480,432.0
48.672222360,420.0
48.693955240,479.0
48.715688120,488.0
48.737421000,469.0
48.759153880,431.0
48.780886760,406.0
48.802619640,419.0
48.824352520,447.0
48.846085400,411.0
48.867818280,420.0
48.889551160,370.0
48.911284040,359.0
48.933016920,361.0
48.954749800,354.0
48.976482680,333.0
48.998215560,311.0
49.019948440,338.0
49.041681320,347.0
49.063414200,340.0
49.085147080,375.0
49.106879960,360.0
49.128612840,347.0
49.150345720,335.0
49.172078600,346.0
49.193811480,393.0
49.215544360,358.0
49.237277240,347.0
49.259010120,368.0
49.280743000,328.0
49.302475880,337.0
49.324208760,364.0
49.345941640,336.0
49.367674520,321.0
49.389407400,333.0
49.411140280,323.0
49.432873160,324.0
49.454606040,360.0
49.476338920,352.0
49.498071800,335.0
49.519804680,314.0
49.541537560,310.0
49.563270440,369.0
49.585003320,308.0
49.606736200,308.0
49.628469080,332.0
49.650201960,334.0
49.671934840,315.0
49.693667720,340.0
49.715400600,351.0
49.737133480,331.0
49.758866360,333.0
49.780599240,332.0
49.802332120,322.0
49.824065000,344.0
49.845797880,324.0
49.867530760,301.0
49.889263640,318.0
49.910996520,272.0
49.932729400,308.0
49.954462280,315.0
49.976195160,328.0
49.997928040,319.0
50.019660920,328.0
50.041393800,303.0
50.063126680,336.0
50.084859560,314.0
50.106592440,346.0
50.128325320,336.0
50.150058200,283.0
50.171791080,336.0
50.193523960,313.0
50.215256840,332.0
50.236989720,304.0
50.258722600,288.0
50.280455480,291.0
50.302188360,313.0
50.323921240,313.0
50.345654120,307.0
50.367387000,322.0
50.389119880,287.0
50.410852760,343.0
50.432585640,278.0
50.454318520,270.0
50.476051400,285.0
50.497784280,325.0
50.519517160,361.0
50.541250040,345.0
50.562982920,304.0
50.584715800,314.0
50.606448680,333.0
50.628181560,339.0
50.649914440,320.0
50.671647320,348.0
50.693380200,305.0
50.715113080,283.0
50.736845960,287.0
50.758578840,318.0
50.780311720,291.0
50.802044600,290.0
50.823777480,317.0
50.845510360,334.0
50.867243240,301.0
50.888976120,289.0
50.910709000,317.0
50.932441880,285.0
50.954174760,296.0
50.975907640,240.0
50.997640520,312.0
51.019373400,307.0
51.041106280,287.0
51.062839160,326.0
51.084572040,294.0
51.106304920,312.0
51.128037800,307.0
51.149770680,300.0
51.171503560,312.0
51.193236440,256.0
51.214969320,293.0
51.236702200,288.0
51.258435080,276.0
51.280167960,283.0
51.301900840,275.0
51.323633720,277.0
51.345366600,279.0
51.367099480,294.0
51.388832360,340.0
51.410565240,309.0
51.432298120,282.0
51.454031000,290.0
51.475763880,277.0
51.497496760,298.0
51.519229640,271.0
51.540962520,292.0
51.562695400,257.0
51.584428280,306.0
51.606161160,308.0
51.627894040,291.0
51.649626920,277.0
51.671359800,305.0
51.693092680,299.0
51.714825560,313.0
51.736558440,295.0
51.758291320,291.0
51.780024200,290.0
51.801757080,293.0
51.823489960,311.0
51.845222840,276.0
51.866955720,327.0
51.888688600,289.0
51.910421480,269.0
51.932154360,248.0
51.953887240,268.0
51.975620120,303.0
51.997353000,302.0
52.019085880,308.0
52.040818760,271.0
52.062551640,269.0
52.084284520,290.0
52.106017400,310.0
52.127750280,281.0
52.149483160,286.0
52.171216040,291.0
52.192948920,298.0
52.214681800,353.0
52.236414680,329.0
52.258147560,424.0
52.279880440,396.0
52.301613320,372.0
52.323346200,396.0
52.345079080,364.0
52.366811960,366.0
52.388544840,311.0
52.410277720,315.0
52.432010600,326.0
52.453743480,348.0
52.475476360,341.0
52.497209240,302.0
52.518942120,312.0
52.540675000,304.0
52.562407880,299.0
52.584140760,280.0
52.605873640,299.0
52.627606520,287.0
52.649339400,315.0
52.671072280,276.0
52.692805160,297.0
52.714538040,268.0
52.736270920,276.0
52.758003800,285.0
52.779736680,279.0
52.801469560,275.0
52.823202440,276.0
52.844935320,304.0
52.866668200,270.0
52.888401080,260.0
52.910133960,273.0
52.931866840,279.0
52.953599720,309.0
52.975332600,257.0
52.997065480,246.0
53.018798360,298.0
53.040531240,309.0
53.062264120,233.0
53.083997000,295.0
53.105729880,289.0
53.127462760,287.0
53.149195640,260.0
53.170928520,267.0
53.192661400,281.0
53.214394280,291.0
53.236127160,304.0
53.257860040,285.0
53.279592920,284.0
53.301325800,278.0
53.323058680,335.0
53.344791560,270.0
53.366524440,298.0
53.388257320,294.0
53.409990200,284.0
53.431723080,289.0
53.453455960,276.0
53.475188840,261.0
53.496921720,281.0
53.518654600,266.0
53.540387480,296.0
53.562120360,314.0
53.583853240,317.0
53.605586120,304.0
53.627319000,312.0
53.649051880,291.0
53.670784760,322.0
53.692517640,314.0
53.714250520,333.0
53.735983400,376.0
53.757716280,425.0
53.779449160,476.0
53.801182040,587.0
53.822914920,759.0
53.844647800,926.0
53.866380680,1029.0
53.888113560,999.0
53.909846440,920.0
53.931579320,788.0
53.953312200,720.0
53.975045080,667.0
53.996777960,694.0
54.018510840,721.0
54.040243720,674.0
54.061976600,553.0
54.083709480,484.0
54.105442360,418.0
54.127175240,379.0
54.148908120,381.0
54.170641000,323.0
54.192373880,331.0
54.214106760,318.0
54.235839640,319.0
54.257572520,304.0
54.279305400,259.0
54.301038280,299.0
54.322771160,267.0
54.344504040,263.0
54.366236920,276.0
54.387969800,279.0
54.409702680,264.0
54.431435560,292.0
54.453168440,290.0
54.474901320,293.0
54.496634200,294.0
54.518367080,263.0
54.540099960,275.0
54.561832840,289.0
54.583565720,305.0
54.605298600,277.0
54.627031480,264.0
54.648764360,291.0
54.670497240,288.0
54.692230120,234.0
54.713963000,289.0
54.735695880,260.0
54.757428760,257.0
54.779161640,242.0
54.800894520,276.0
54.822627400,297.0
54.844360280,261.0
54.866093160,286.0
54.887826040,300.0
54.909558920,291.0
54.931291800,265.0
54.953024680,282.0
54.974757560,297.0
54.996490440,271.0
55.018223320,266.0
55.039956200,279.0
55.061689080,279.0
55.083421960,265.0
55.105154840,281.0
55.126887720,319.0
55.148620600,290.0
55.170353480,275.0
55.192086360,248.0
55.213819240,247.0
55.235552120,276.0
55.257285000,285.0
55.279017880,292.0
55.300750760,275.0
55.322483640,233.0
55.344216520,299.0
55.365949400,265.0
55.387682280,286.0
55.409415160,290.0
55.431148040,270.0
55.452880920,295.0
55.474613800,298.0
55.496346680,272.0
55.518079560,303.0
55.539812440,300.0
55.561545320,270.0
55.583278200,306.0
55.605011080,291.0
55.626743960,281.0
55.648476840,335.0
55.670209720,340.0
55.691942600,380.0
55.713675480,330.0
55.735408360,416.0
55.757141240,467.0
55.778874120,366.0
55.800607000,372.0
55.822339880,334.0
55.844072760,332.0
55.865805640,336.0
55.887538520,367.0
55.909271400,365.0
55.931004280,363.0
55.952737160,362.0
55.974470040,306.0
55.996202920,348.0
56.017935800,329.0
56.039668680,376.0
56.061401560,374.0
56.083134440,423.0
56.104867320,384.0
56.126600200,433.0
56.148333080,464.0
56.170065960,472.0
56.191798840,497.0
56.213531720,530.0
56.235264600,523.0
56.256997480,595.0
56.278730360,698.0
56.300463240,802.0
56.322196120,894.0
56.343929000,1149.0
56.365661880,1561.0
56.387394760,2257.0
56.409127640,3118.0
56.430860520,4196.0
56.452593400,5470.0
56.474326280,6038.0
56.496059160,5766.0
56.517792040,4726.0
56.539524920,3990.0
56.561257800,3402.0
56.582990680,3563.0
56.604723560,3562.0
56.626456440,3732.0
56.648189320,3246.0
56.669922200,2596.0
56.691655080,1897.0
56.713387960,1417.0
56.735120840,1142.0
56.756853720,917.0
56.778586600,743.0
56.800319480,615.0
56.822052360,555.0
56.843785240,494.0
56.865518120,423.0
56.887251000,411.0
56.908983880,387.0
56.930716760,377.0
56.952449640,376.0
56.974182520,318.0
56.995915400,359.0
57.017648280,344.0
57.039381160,308.0
57.061114040,294.0
57.082846920,309.0
57.104579800,317.0
57.126312680,282.0
57.148045560,268.0
57.169778440,282.0
57.191511320,289.0
57.213244200,241.0
57.234977080,270.0
57.256709960,302.0
57.278442840,285.0
57.300175720,274.0
57.321908600,273.0
57.343641480,270.0
57.365374360,283.0
57.387107240,288.0
57.408840120,273.0
57.430573000,237.0
57.452305880,251.0
57.474038760,266.0
57.495771640,239.0
57.517504520,269.0
57.539237400,272.0
57.560970280,277.0
57.582703160,279.0
57.604436040,249.0
57.626168920,242.0
57.647901800,242.0
57.669634680,242.0
57.691367560,245.0
57.713100440,262.0
57.734833320,246.0
57.756566200,238.0
57.778299080,283.0
57.800031960,278.0
57.821764840,249.0
57.843497720,276.0
57.865230600,240.0
57.886963480,300.0
57.908696360,275.0
57.930429240,278.0
57.952162120,278.0
57.973895000,278.0
57.995627880,262.0
58.017360760,258.0
58.039093640,246.0
58.060826520,272.0
58.082559400,277.0
58.104292280,221.0
58.126025160,238.0
58.147758040,248.0
58.169490920,259.0
58.191223800,239.0
58.212956680,229.0
58.234689560,236.0
58.256422440,247.0
58.278155320,243.0
58.299888200,217.0
58.321621080,235.0
58.343353960,246.0
58.365086840,245.0
58.386819720,233.0
58.408552600,234.0
58.430285480,229.0
58.452018360,232.0
58.473751240,227.0
58.495484120,242.0
58.517217000,228.0
58.538949880,218.0
58.560682760,215.0
58.582415640,224.0
58.604148520,239.0
58.625881400,235.0
58.647614280,246.0
58.669347160,220.0
58.691080040,230.0
58.712812920,259.0
58.734545800,229.0
58.756278680,241.0
58.778011560,233.0
58.799744440,225.0
58.821477320,239.0
58.843210200,211.0
58.864943080,258.0
58.886675960,236.0
58.908408840,256.0
58.930141720,246.0
58.951874600,242.0
58.973607480,239.0
58.995340360,265.0
59.017073240,259.0
59.038806120,266.0
59.060539000,282.0
59.082271880,286.0
59.104004760,259.0
59.125737640,235.0
59.147470520,285.0
59.169203400,268.0
59.190936280,292.0
59.212669160,270.0
59.234402040,284.0
59.256134920,266.0
59.277867800,273.0
59.299600680,236.0
59.321333560,228.0
59.343066440,236.0
59.364799320,275.0
59.386532200,238.0
59.408265080,199.0
59.429997960,224.0
59.451730840,206.0
59.473463720,226.0
59.495196600,258.0
59.516929480,240.0
59.538662360,239.0
59.560395240,256.0
59.582128120,229.0
59.603861000,241.0
59.625593880,190.0
59.647326760,187.0
59.669059640,186.0
59.690792520,236.0
59.712525400,215.0
59.734258280,210.0
59.755991160,231.0
59.777724040,228.0
59.799456920,222.0
59.821189800,219.0
59.842922680,245.0
59.864655560,208.0
59.886388440,238.0
59.908121320,236.0
59.929854200,229.0
59.951587080,233.0
59.973319960,238.0
59.995052840,214.0
60.016785720,234.0
60.038518600,215.0
60.060251480,230.0
60.081984360,231.0
60.103717240,224.0
60.125450120,192.0
60.147183000,216.0
60.168915880,219.0
60.190648760,236.0
60.212381640,214.0
60.234114520,222.0
60.255847400,225.0
60.277580280,250.0
60.299313160,205.0
60.321046040,222.0
60.342778920,206.0
60.364511800,212.0
60.386244680,226.0
60.407977560,207.0
60.429710440,207.0
60.451443320,259.0
60.473176200,213.0
60.494909080,223.0
60.516641960,227.0
60.538374840,217.0
60.560107720,230.0
60.581840600,236.0
60.603573480,225.0
60.625306360,224.0
60.647039240,249.0
60.668772120,220.0
60.690505000,209.0
60.712237880,260.0
60.733970760,215.0
60.755703640,213.0
60.777436520,229.0
60.799169400,192.0
60.820902280,204.0
60.842635160,237.0
60.864368040,220.0
60.886100920,204.0
60.907833800,244.0
60.929566680,249.0
60.951299560,225.0
60.973032440,227.0
60.994765320,225.0
61.016498200,225.0
61.038231080,235.0
61.059963960,234.0
61.081696840,214.0
61.103429720,202.0
61.125162600,212.0
61.146895480,211.0
61.168628360,223.0
61.190361240,232.0
61.212094120,220.0
61.233827000,214.0
61.255559880,220.0
61.277292760,257.0
61.299025640,209.0
61.320758520,233.0
61.342491400,227.0
61.364224280,240.0
61.385957160,229.0
61.407690040,232.0
61.429422920,218.0
61.451155800,231.0
61.472888680,238.0
61.494621560,218.0
61.516354440,223.0
61.538087320,216.0
61.559820200,225.0
61.581553080,212.0
61.603285960,213.0
61.625018840,258.0
61.646751720,227.0
61.668484600,222.0
61.690217480,212.0
61.711950360,186.0
61.733683240,220.0
61.755416120,204.0
61.777149000,210.0
61.798881880,199.0
61.820614760,214.0
61.842347640,229.0
61.864080520,204.0
61.885813400,199.0
61.907546280,221.0
61.929279160,206.0
61.951012040,196.0
61.972744920,215.0
61.994477800,231.0
62.016210680,208.0
62.037943560,221.0
62.059676440,244.0
62.081409320,238.0
62.103142200,227.0
62.124875080,196.0
62.146607960,218.0
62.168340840,229.0
62.190073720,309.0
62.211806600,211.0
62.233539480,241.0
62.255272360,239.0
62.277005240,267.0
62.298738120,286.0
62.320471000,238.0
62.342203880,260.0
62.363936760,261.0
62.385669640,245.0
62.407402520,212.0
62.429135400,231.0
62.450868280,218.0
62.472601160,235.0
62.494334040,246.0
62.516066920,213.0
62.537799800,228.0
62.559532680,226.0
62.581265560,224.0
62.602998440,201.0
62.624731320,209.0
62.646464200,216.0
62.668197080,218.0
62.689929960,201.0
62.711662840,211.0
62.733395720,212.0
62.755128600,225.0
62.776861480,209.0
62.798594360,209.0
62.820327240,210.0
62.842060120,216.0
62.863793000,236.0
62.885525880,223.0
62.907258760,205.0
62.928991640,246.0
62.950724520,206.0
62.972457400,234.0
62.994190280,215.0
63.015923160,207.0
63.037656040,235.0
63.059388920,195.0
63.081121800,232.0
63.102854680,208.0
63.124587560,210.0
63.146320440,206.0
63.168053320,223.0
63.189786200,217.0
63.211519080,182.0
63.233251960,210.0
63.254984840,248.0
63.276717720,223.0
63.298450600,199.0
63.320183480,210.0
63.341916360,207.0
63.363649240,204.0
63.385382120,240.0
63.407115000,217.0
63.428847880,216.0
63.450580760,195.0
63.472313640,210.0
63.494046520,190.0
63.515779400,196.0
63.537512280,219.0
63.559245160,205.0
63.580978040,206.0
63.602710920,202.0
63.624443800,208.0
63.646176680,206.0
63.667909560,225.0
63.689642440,225.0
63.711375320,213.0
63.733108200,199.0
63.754841080,248.0
63.776573960,200.0
63.798306840,257.0
63.820039720,199.0
63.841772600,221.0
63.863505480,226.0
63.885238360,216.0
63.906971240,193.0
63.928704120,235.0
63.950437000,220.0
63.972169880,240.0
63.993902760,222.0
64.015635640,231.0
64.037368520,240.0
64.059101400,240.0
64.080834280,218.0
64.102567160,230.0
64.124300040,236.0
64.146032920,256.0
64.167765800,264.0
64.189498680,261.0
64.211231560,257.0
64.232964440,240.0
64.254697320,218.0
64.276430200,259.0
64.298163080,208.0
64.319895960,207.0
64.341628840,209.0
64.363361720,232.0
64.385094600,233.0
64.406827480,215.0
64.428560360,224.0
64.450293240,216.0
64.472026120,238.0
64.493759000,260.0
64.515491880,239.0
64.537224760,202.0
64.558957640,214.0
64.580690520,244.0
64.602423400,229.0
64.624156280,199.0
64.645889160,247.0
64.667622040,225.0
64.689354920,216.0
64.711087800,230.0
64.732820680,210.0
64.754553560,236.0
64.776286440,211.0
64.798019320,222.0
64.819752200,227.0
64.841485080,239.0
64.863217960,243.0
64.884950840,258.0
64.906683720,238.0
64.928416600,224.0
64.950149480,285.0
64.971882360,234.0
64.993615240,234.0
65.015348120,242.0
65.037081000,256.0
65.058813880,220.0
65.080546760,270.0
65.102279640,248.0
65.124012520,251.0
65.145745400,226.0
65.167478280,226.0
65.189211160,259.0
65.210944040,260.0
65.232676920,227.0
65.254409800,211.0
65.276142680,242.0
65.297875560,286.0
65.319608440,258.0
65.341341320,236.0
65.363074200,249.0
65.384807080,281.0
65.406539960,236.0
65.428272840,247.0
65.450005720,279.0
65.471738600,259.0
65.493471480,295.0
65.515204360,268.0
65.536937240,279.0
65.558670120,291.0
65.580403000,284.0
65.602135880,312.0
65.623868760,247.0
65.645601640,272.0
65.667334520,294.0
65.689067400,292.0
65.710800280,333.0
65.732533160,295.0
65.754266040,307.0
65.775998920,386.0
65.797731800,368.0
65.819464680,359.0
65.841197560,375.0
65.862930440,443.0
65.884663320,422.0
65.906396200,477.0
65.928129080,534.0
65.949861960,507.0
65.971594840,539.0
65.993327720,542.0
66.015060600,661.0
66.036793480,691.0
66.058526360,783.0
66.080259240,957.0
66.101992120,1233.0
66.123725000,1579.0
66.145457880,2220.0
66.167190760,3331.0
66.188923640,4761.0
66.210656520,6529.0
66.232389400,7825.0
66.254122280,7587.0
66.275855160,6253.0
66.297588040,4623.0
66.319320920,3381.0
66.341053800,2996.0
66.362786680,3089.0
66.384519560,3622.0
66.406252440,4053.0
66.427985320,4304.0
66.449718200,3850.0
66.471451080,2960.0
66.493183960,2121.0
66.514916840,1530.0
66.536649720,1091.0
66.558382600,849.0
66.580115480,712.0
66.601848360,623.0
66.623581240,558.0
66.645314120,486.0
66.667047000,464.0
66.688779880,388.0
66.710512760,391.0
66.732245640,342.0
66.753978520,334.0
66.775711400,315.0
66.797444280,328.0
66.819177160,326.0
66.840910040,318.0
66.862642920,332.0
66.884375800,316.0
66.906108680,275.0
66.927841560,309.0
66.949574440,287.0
66.971307320,336.0
66.993040200,290.0
67.014773080,329.0
67.036505960,301.0
67.058238840,323.0
67.079971720,242.0
67.101704600,288.0
67.123437480,258.0
67.145170360,264.0
67.166903240,257.0
67.188636120,283.0
67.210369000,240.0
67.232101880,291.0
67.253834760,258.0
67.275567640,269.0
67.297300520,241.0
67.319033400,276.0
67.340766280,243.0
67.362499160,265.0
67.384232040,233.0
67.405964920,242.0
67.427697800,232.0
67.449430680,238.0
67.471163560,222.0
67.492896440,249.0
67.514629320,259.0
67.536362200,241.0
67.558095080,225.0
67.579827960,223.0
67.601560840,219.0
67.623293720,202.0
67.645026600,232.0
67.666759480,197.0
67.688492360,241.0
67.710225240,247.0
67.731958120,230.0
67.753691000,209.0
67.775423880,228.0
67.797156760,239.0
67.818889640,207.0
67.840622520,202.0
67.862355400,214.0
67.884088280,218.0
67.905821160,201.0
67.927554040,213.0
67.949286920,229.0
67.971019800,205.0
67.992752680,242.0
68.014485560,239.0
68.036218440,224.0
68.057951320,244.0
68.079684200,200.0
68.101417080,222.0
68.123149960,235.0
68.144882840,211.0
68.166615720,187.0
68.188348600,219.0
68.210081480,214.0
68.231814360,247.0
68.253547240,228.0
68.275280120,216.0
68.297013000,191.0
68.318745880,237.0
68.340478760,200.0
68.362211640,231.0
68.383944520,219.0
68.405677400,209.0
68.427410280,239.0
68.449143160,201.0
68.470876040,246.0
68.492608920,223.0
68.514341800,211.0
68.536074680,201.0
68.557807560,215.0
68.579540440,213.0
68.601273320,207.0
68.623006200,225.0
68.644739080,234.0
68.666471960,212.0
68.688204840,240.0
68.709937720,228.0
68.731670600,222.0
68.753403480,220.0
68.775136360,222.0
68.796869240,191.0
68.818602120,199.0
68.840335000,192.0
68.862067880,214.0
68.883800760,215.0
68.905533640,224.0
68.927266520,222.0
68.948999400,204.0
68.970732280,211.0
68.992465160,214.0
69.014198040,200.0
69.035930920,201.0
69.057663800,237.0
69.079396680,221.0
69.101129560,217.0
69.122862440,246.0
69.144595320,227.0
69.166328200,205.0
69.188061080,212.0
69.209793960,226.0
69.231526840,233.0
69.253259720,215.0
69.274992600,230.0
69.296725480,217.0
69.318458360,200.0
69.340191240,188.0
69.361924120,233.0
69.383657000,217.0
69.405389880,211.0
69.427122760,191.0
69.448855640,216.0
69.470588520,212.0
69.492321400,216.0
69.514054280,211.0
69.535787160,217.0
69.557520040,210.0
69.579252920,210.0
69.600985800,189.0
69.622718680,198.0
69.644451560,216.0
69.666184440,210.0
69.687917320,208.0
69.709650200,214.0
69.731383080,206.0
69.753115960,208.0
69.774848840,221.0
69.796581720,246.0
69.818314600,238.0
69.840047480,222.0
69.861780360,222.0
69.883513240,215.0
69.905246120,206.0
69.926979000,191.0
69.948711880,192.0
69.970444760,198.0
69.992177640,228.0
70.013910520,214.0
70.035643400,234.0
70.057376280,199.0
70.079109160,201.0
70.100842040,198.0
70.122574920,225.0
70.144307800,189.0
70.166040680,208.0
70.187773560,228.0
70.209506440,226.0
70.231239320,212.0
70.252972200,209.0
70.274705080,216.0
70.296437960,202.0
70.318170840,187.0
70.339903720,210.0
70.361636600,213.0
70.383369480,190.0
70.405102360,195.0
70.426835240,222.0
70.448568120,195.0
70.470301000,213.0
70.492033880,189.0
70.513766760,215.0
70.535499640,187.0
70.557232520,203.0
70.578965400,217.0
70.600698280,205.0
70.622431160,220.0
70.644164040,196.0
70.665896920,209.0
70.687629800,212.0
70.709362680,224.0
70.731095560,202.0
70.752828440,203.0
70.774561320,208.0
70.796294200,206.0
70.818027080,210.0
70.839759960,207.0
70.861492840,195.0
70.883225720,218.0
70.904958600,213.0
70.926691480,194.0
70.948424360,200.0
70.970157240,195.0
70.991890120,207.0
71.013623000,201.0
71.035355880,228.0
71.057088760,212.0
71.078821640,209.0
71.100554520,193.0
71.122287400,206.0
71.144020280,213.0
71.165753160,197.0
71.187486040,234.0
71.209218920,206.0
71.230951800,217.0
71.252684680,233.0
71.274417560,231.0
71.296150440,239.0
71.317883320,233.0
71.339616200,242.0
71.361349080,209.0
71.383081960,243.0
71.404814840,214.0
71.426547720,196.0
71.448280600,234.0
71.470013480,257.0
71.491746360,238.0
71.513479240,228.0
71.535212120,207.0
71.556945000,214.0
71.578677880,221.0
71.600410760,218.0
71.622143640,231.0
71.643876520,223.0
71.665609400,202.0
71.687342280,211.0
71.709075160,184.0
71.730808040,208.0
71.752540920,235.0
71.774273800,196.0
71.796006680,205.0
71.817739560,185.0
71.839472440,219.0
71.861205320,245.0
71.882938200,210.0
71.904671080,228.0
71.926403960,205.0
71.948136840,200.0
71.969869720,208.0
71.991602600,203.0
72.013335480,207.0
72.035068360,188.0
72.056801240,214.0
72.078534120,225.0
72.100267000,221.0
72.121999880,208.0
72.143732760,228.0
72.165465640,192.0
72.187198520,203.0
72.208931400,192.0
72.230664280,189.0
72.252397160,240.0
72.274130040,195.0
72.295862920,224.0
72.317595800,266.0
72.339328680,191.0
72.361061560,241.0
72.382794440,232.0
72.404527320,220.0
72.426260200,210.0
72.447993080,218.0
72.469725960,233.0
72.491458840,236.0
72.513191720,212.0
72.534924600,232.0
72.556657480,226.0
72.578390360,211.0
72.600123240,203.0
72.621856120,223.0
72.643589000,246.0
72.665321880,210.0
72.687054760,244.0
72.708787640,222.0
72.730520520,225.0
72.752253400,286.0
72.773986280,248.0
72.795719160,219.0
72.817452040,275.0
72.839184920,264.0
72.860917800,261.0
72.882650680,237.0
72.904383560,256.0
72.926116440,283.0
72.947849320,301.0
72.969582200,326.0
72.991315080,420.0
73.013047960,392.0
73.034780840,466.0
73.056513720,494.0
73.078246600,503.0
73.099979480,453.0
73.121712360,376.0
73.143445240,370.0
73.165178120,344.0
73.186911000,321.0
73.208643880,361.0
73.230376760,348.0
73.252109640,373.0
73.273842520,359.0
73.295575400,370.0
73.317308280,287.0
73.339041160,312.0
73.360774040,291.0
73.382506920,294.0
73.404239800,284.0
73.425972680,241.0
73.447705560,256.0
73.469438440,243.0
73.491171320,273.0
73.512904200,258.0
73.534637080,224.0
73.556369960,237.0
73.578102840,238.0
73.599835720,205.0
73.621568600,257.0
73.643301480,236.0
73.665034360,211.0
73.686767240,235.0
73.708500120,261.0
73.730233000,239.0
73.751965880,209.0
73.773698760,224.0
73.795431640,241.0
73.817164520,223.0
73.838897400,205.0
73.860630280,260.0
73.882363160,242.0
73.904096040,223.0
73.925828920,237.0
73.947561800,220.0
73.969294680,212.0
73.991027560,257.0
74.012760440,237.0
74.034493320,227.0
74.056226200,235.0
74.077959080,241.0
74.099691960,262.0
74.121424840,228.0
74.143157720,244.0
74.164890600,271.0
74.186623480,278.0
74.208356360,332.0
74.230089240,293.0
74.251822120,302.0
74.273555000,281.0
74.295287880,292.0
74.317020760,275.0
74.338753640,215.0
74.360486520,282.0
74.382219400,281.0
74.403952280,301.0
74.425685160,292.0
74.447418040,292.0
74.469150920,290.0
74.490883800,277.0
74.512616680,311.0
74.534349560,295.0
74.556082440,275.0
74.577815320,287.0
74.599548200,301.0
74.621281080,266.0
74.643013960,311.0
74.664746840,286.0
74.686479720,318.0
74.708212600,306.0
74.729945480,305.0
74.751678360,327.0
74.773411240,330.0
74.795144120,329.0
74.816877000,378.0
74.838609880,370.0
74.860342760,412.0
74.882075640,399.0
74.903808520,438.0
74.925541400,472.0
74.947274280,467.0
74.969007160,477.0
74.990740040,516.0
75.012472920,561.0
75.034205800,569.0
75.055938680,671.0
75.077671560,729.0
75.099404440,856.0
75.121137320,1007.0
75.142870200,1200.0
75.164603080,1584.0
75.186335960,2074.0
75.208068840,2675.0
75.229801720,3686.0
75.251534600,4657.0
75.273267480,5603.0
75.295000360,5894.0
75.316733240,5444.0
75.338466120,4437.0
75.360199000,3741.0
75.381931880,3059.0
75.403664760,2650.0
75.425397640,2539.0
75.447130520,2739.0
75.468863400,2955.0
75.490596280,3386.0
75.512329160,3372.0
75.534062040,3084.0
75.555794920,2614.0
75.577527800,2066.0
75.599260680,1592.0
75.620993560,1332.0
75.642726440,1066.0
75.664459320,918.0
75.686192200,769.0
75.707925080,608.0
75.729657960,518.0
75.751390840,514.0
75.773123720,462.0
75.794856600,427.0
75.816589480,402.0
75.838322360,414.0
75.860055240,338.0
75.881788120,359.0
75.903521000,363.0
75.925253880,292.0
75.946986760,311.0
75.968719640,299.0
75.990452520,277.0
76.012185400,319.0
76.033918280,296.0
76.055651160,289.0
76.077384040,295.0
76.099116920,259.0
76.120849800,282.0
76.142582680,274.0
76.164315560,261.0
76.186048440,259.0
76.207781320,248.0
76.229514200,264.0
76.251247080,261.0
76.272979960,226.0
76.294712840,257.0
76.316445720,258.0
76.338178600,266.0
76.359911480,264.0
76.381644360,220.0
76.403377240,200.0
76.425110120,259.0
76.446843000,262.0
76.468575880,219.0
76.490308760,220.0
76.512041640,231.0
76.533774520,229.0
76.555507400,232.0
76.577240280,234.0
76.598973160,203.0
76.620706040,201.0
76.642438920,236.0
76.664171800,239.0
76.685904680,229.0
76.707637560,209.0
76.729370440,232.0
76.751103320,226.0
76.772836200,219.0
76.794569080,241.0
76.816301960,236.0
76.838034840,266.0
76.859767720,215.0
76.881500600,203.0
76.903233480,224.0
76.924966360,223.0
76.946699240,258.0
76.968432120,227.0
76.990165000,204.0
77.011897880,218.0
77.033630760,222.0
77.055363640,206.0
77.077096520,235.0
77.098829400,216.0
77.120562280,229.0
77.142295160,197.0
77.164028040,211.0
77.185760920,225.0
77.207493800,222.0
77.229226680,227.0
77.250959560,244.0
77.272692440,238.0
77.294425320,213.0
77.316158200,193.0
77.337891080,241.0
77.359623960,233.0
77.381356840,196.0
77.403089720,222.0
77.424822600,209.0
77.446555480,228.0
77.468288360,210.0
77.490021240,217.0
77.511754120,243.0
77.533487000,217.0
77.555219880,170.0
77.576952760,203.0
77.598685640,180.0
77.620418520,212.0
77.642151400,189.0
77.663884280,223.0
77.685617160,203.0
77.707350040,229.0
77.729082920,195.0
77.750815800,196.0
77.772548680,197.0
77.794281560,226.0
77.816014440,204.0
77.837747320,204.0
77.859480200,209.0
77.881213080,214.0
77.902945960,218.0
77.924678840,213.0
77.946411720,202.0
77.968144600,206.0
77.989877480,187.0
78.011610360,201.0
78.033343240,207.0
78.055076120,199.0
78.076809000,197.0
78.098541880,183.0
78.120274760,220.0
78.142007640,212.0
78.163740520,183.0
78.185473400,178.0
78.207206280,197.0
78.228939160,194.0
78.250672040,204.0
78.272404920,203.0
78.294137800,168.0
78.315870680,231.0
78.337603560,184.0
78.359336440,189.0
78.381069320,196.0
78.402802200,233.0
78.424535080,214.0
78.446267960,193.0
78.468000840,212.0
78.489733720,195.0
78.511466600,189.0
78.533199480,218.0
78.554932360,196.0
78.576665240,238.0
78.598398120,225.0
78.620131000,221.0
78.641863880,238.0
78.663596760,244.0
78.685329640,234.0
78.707062520,239.0
78.728795400,235.0
78.750528280,200.0
78.772261160,200.0
78.793994040,185.0
78.815726920,211.0
78.837459800,207.0
78.859192680,232.0
78.880925560,240.0
78.902658440,233.0
78.924391320,215.0
78.946124200,196.0
78.967857080,186.0
78.989589960,182.0
79.011322840,194.0
79.033055720,177.0
79.054788600,206.0
79.076521480,196.0
79.098254360,224.0
79.119987240,187.0
79.141720120,174.0
79.163453000,194.0
79.185185880,190.0
79.206918760,200.0
79.228651640,198.0
79.250384520,178.0
79.272117400,189.0
79.293850280,201.0
79.315583160,227.0
79.337316040,193.0
79.359048920,188.0
79.380781800,190.0
79.402514680,208.0
79.424247560,217.0
79.445980440,229.0
79.467713320,185.0
79.489446200,190.0
79.511179080,198.0
79.532911960,213.0
79.554644840,215.0
79.576377720,181.0
79.598110600,181.0
79.619843480,180.0
79.641576360,186.0
79.663309240,190.0
79.685042120,182.0
79.706775000,175.0
79.728507880,213.0
79.750240760,195.0
79.771973640,207.0
79.793706520,203.0
79.815439400,206.0
79.837172280,178.0
79.858905160,206.0
79.880638040,179.0
79.902370920,180.0
79.924103800,207.0
79.945836680,206.0
79.967569560,198.0
79.989302440,203.0
80.011035320,178.0
80.032768200,194.0
80.054501080,178.0
80.076233960,211.0
80.097966840,186.0
80.119699720,195.0
80.141432600,194.0
80.163165480,190.0
80.184898360,180.0
80.206631240,165.0
80.228364120,178.0
80.250097000,192.0
80.271829880,179.0
80.293562760,175.0
80.315295640,192.0
80.337028520,184.0
80.358761400,202.0
80.380494280,196.0
80.402227160,180.0
80.423960040,157.0
80.445692920,196.0
80.467425800,181.0
80.489158680,210.0
80.510891560,192.0
80.532624440,215.0
80.554357320,210.0
80.576090200,198.0
80.597823080,183.0
80.619555960,203.0
80.641288840,194.0
80.663021720,194.0
80.684754600,194.0
80.706487480,203.0
80.728220360,199.0
80.749953240,187.0
80.771686120,214.0
80.793419000,188.0
80.815151880,184.0
80.836884760,182.0
80.858617640,197.0
80.880350520,209.0
80.902083400,204.0
80.923816280,192.0
80.945549160,188.0
80.967282040,193.0
80.989014920,194.0
81.010747800,208.0
81.032480680,213.0
81.054213560,180.0
81.075946440,184.0
81.097679320,171.0
81.119412200,228.0
81.141145080,185.0
81.162877960,203.0
81.184610840,208.0
81.206343720,172.0
81.228076600,180.0
81.249809480,195.0
81.271542360,206.0
81.293275240,191.0
81.315008120,185.0
81.336741000,195.0
81.358473880,208.0
81.380206760,170.0
81.401939640,186.0
81.423672520,172.0
81.445405400,210.0
81.467138280,194.0
81.488871160,224.0
81.510604040,192.0
81.532336920,206.0
81.554069800,165.0
81.575802680,191.0
81.597535560,207.0
81.619268440,198.0
81.641001320,180.0
81.662734200,210.0
81.684467080,197.0
81.706199960,225.0
81.727932840,213.0
81.749665720,205.0
81.771398600,200.0
81.793131480,195.0
81.814864360,170.0
81.836597240,181.0
81.858330120,201.0
81.880063000,189.0
81.901795880,187.0
81.923528760,189.0
81.945261640,187.0
81.966994520,178.0
81.988727400,168.0
82.010460280,195.0
82.032193160,166.0
82.053926040,188.0
82.075658920,181.0
82.097391800,191.0
82.119124680,182.0
82.140857560,195.0
82.162590440,179.0
82.184323320,174.0
82.206056200,198.0
82.227789080,198.0
82.249521960,169.0
82.271254840,165.0
82.292987720,177.0
82.314720600,215.0
82.336453480,172.0
82.358186360,204.0
82.379919240,219.0
82.401652120,176.0
82.423385000,198.0
82.445117880,191.0
82.466850760,199.0
82.488583640,190.0
82.510316520,190.0
82.532049400,194.0
82.553782280,206.0
82.575515160,210.0
82.597248040,195.0
82.618980920,199.0
82.640713800,222.0
82.662446680,209.0
82.684179560,222.0
82.705912440,215.0
82.727645320,222.0
82.749378200,235.0
82.771111080,207.0
82.792843960,224.0
82.814576840,234.0
82.836309720,241.0
82.858042600,222.0
82.879775480,210.0
82.901508360,235.0
82.923241240,218.0
82.944974120,199.0
82.966707000,213.0
82.988439880,237.0
83.010172760,218.0
83.031905640,227.0
83.053638520,220.0
83.075371400,240.0
83.097104280,237.0
83.118837160,197.0
83.140570040,217.0
83.162302920,221.0
83.184035800,235.0
83.205768680,211.0
83.227501560,205.0
83.249234440,224.0
83.270967320,203.0
83.292700200,207.0
83.314433080,206.0
83.336165960,219.0
83.357898840,181.0
83.379631720,208.0
83.401364600,221.0
83.423097480,235.0
83.444830360,257.0
83.466563240,247.0
83.488296120,283.0
83.510029000,259.0
83.531761880,261.0
83.553494760,268.0
83.575227640,310.0
83.596960520,320.0
83.618693400,314.0
83.640426280,339.0
83.662159160,369.0
83.683892040,364.0
83.705624920,383.0
83.727357800,387.0
83.749090680,441.0
83.770823560,496.0
83.792556440,584.0
83.814289320,697.0
83.836022200,794.0
83.857755080,945.0
83.879487960,1228.0
83.901220840,1528.0
83.922953720,1759.0
83.944686600,2195.0
83.966419480,2418.0
83.988152360,2603.0
84.009885240,2469.0
84.031618120,2212.0
84.053351000,1824.0
84.075083880,1619.0
84.096816760,1459.0
84.118549640,1312.0
84.140282520,1273.0
84.162015400,1285.0
84.183748280,1381.0
84.205481160,1518.0
84.227214040,1534.0
84.248946920,1492.0
84.270679800,1402.0
84.292412680,1232.0
84.314145560,1041.0
84.335878440,915.0
84.357611320,714.0
84.379344200,642.0
84.401077080,517.0
84.422809960,498.0
84.444542840,448.0
84.466275720,425.0
84.488008600,396.0
84.509741480,374.0
84.531474360,345.0
84.553207240,307.0
84.574940120,293.0
84.596673000,300.0
84.618405880,281.0
84.640138760,273.0
84.661871640,256.0
84.683604520,260.0
84.705337400,208.0
84.727070280,237.0
84.748803160,215.0
84.770536040,266.0
84.792268920,224.0
84.814001800,193.0
84.835734680,220.0
84.857467560,216.0
84.879200440,206.0
84.900933320,212.0
84.922666200,195.0
84.944399080,196.0
84.966131960,166.0
84.987864840,194.0
85.009597720,221.0
85.031330600,177.0
85.053063480,191.0
85.074796360,180.0
85.096529240,166.0
85.118262120,192.0
85.139995000,205.0
85.161727880,179.0
85.183460760,206.0
85.205193640,182.0
85.226926520,166.0
85.248659400,178.0
85.270392280,192.0
85.292125160,188.0
85.313858040,191.0
85.335590920,184.0
85.357323800,186.0
85.379056680,176.0
85.400789560,190.0
85.422522440,175.0
85.444255320,175.0
85.465988200,182.0
85.487721080,185.0
85.509453960,205.0
85.531186840,174.0
85.552919720,194.0
85.574652600,199.0
85.596385480,161.0
85.618118360,197.0
85.639851240,176.0
85.661584120,172.0
85.683317000,205.0
85.705049880,174.0
85.726782760,201.0
85.748515640,203.0
85.770248520,186.0
85.791981400,161.0
85.813714280,173.0
85.835447160,153.0
85.857180040,163.0
85.878912920,160.0
85.900645800,193.0
85.922378680,181.0
85.944111560,180.0
85.965844440,179.0
85.987577320,171.0
86.009310200,196.0
86.031043080,184.0
86.052775960,192.0
86.074508840,203.0
86.096241720,189.0
86.117974600,205.0
86.139707480,198.0
86.161440360,178.0
86.183173240,187.0
86.204906120,157.0
86.226639000,171.0
86.248371880,169.0
86.270104760,182.0
86.291837640,174.0
86.313570520,180.0
86.335303400,176.0
86.357036280,172.0
86.378769160,170.0
86.400502040,168.0
86.422234920,167.0
86.443967800,182.0
86.465700680,176.0
86.487433560,189.0
86.509166440,165.0
86.530899320,159.0
86.552632200,176.0
86.574365080,164.0
86.596097960,201.0
86.617830840,181.0
86.639563720,182.0
86.661296600,187.0
86.683029480,180.0
86.704762360,175.0
86.726495240,190.0
86.748228120,192.0
86.769961000,154.0
86.791693880,174.0
86.813426760,170.0
86.835159640,166.0
86.856892520,166.0
86.878625400,177.0
86.900358280,151.0
86.922091160,159.0
86.943824040,163.0
86.965556920,159.0
86.987289800,187.0
87.009022680,153.0
87.030755560,152.0
87.052488440,187.0
87.074221320,151.0
87.095954200,179.0
87.117687080,169.0
87.139419960,153.0
87.161152840,165.0
87.182885720,182.0
87.204618600,177.0
87.226351480,161.0
87.248084360,172.0
87.269817240,185.0
87.291550120,136.0
87.313283000,181.0
87.335015880,153.0
87.356748760,149.0
87.378481640,174.0
87.400214520,155.0
87.421947400,155.0
87.443680280,188.0
87.465413160,170.0
87.487146040,157.0
87.508878920,169.0
87.530611800,169.0
87.552344680,180.0
87.574077560,179.0
87.595810440,168.0
87.617543320,165.0
87.639276200,173.0
87.661009080,183.0
87.682741960,171.0
87.704474840,159.0
87.726207720,177.0
87.747940600,164.0
87.769673480,157.0
87.791406360,186.0
87.813139240,159.0
87.834872120,151.0
87.856605000,172.0
87.878337880,172.0
87.900070760,177.0
87.921803640,182.0
87.943536520,159.0
87.965269400,138.0
87.987002280,162.0
88.008735160,199.0
88.030468040,192.0
88.052200920,194.0
88.073933800,191.0
88.095666680,194.0
88.117399560,191.0
88.139132440,189.0
88.160865320,196.0
88.182598200,176.0
88.204331080,185.0
88.226063960,167.0
88.247796840,185.0
88.269529720,165.0
88.291262600,202.0
88.312995480,165.0
88.334728360,206.0
88.356461240,197.0
88.378194120,192.0
88.399927000,204.0
88.421659880,200.0
88.443392760,213.0
88.465125640,196.0
88.486858520,209.0
88.508591400,192.0
88.530324280,212.0
88.552057160,195.0
88.573790040,193.0
88.595522920,215.0
88.617255800,180.0
88.638988680,180.0
88.660721560,184.0
88.682454440,179.0
88.704187320,181.0
88.725920200,171.0
88.747653080,183.0
88.769385960,134.0
88.791118840,157.0
88.812851720,188.0
88.834584600,147.0
88.856317480,179.0
88.878050360,182.0
88.899783240,192.0
88.921516120,178.0
88.943249000,170.0
88.964981880,156.0
88.986714760,164.0
89.008447640,179.0
89.030180520,170.0
89.051913400,179.0
89.073646280,166.0
89.095379160,139.0
89.117112040,174.0
89.138844920,172.0
89.160577800,188.0
89.182310680,159.0
89.204043560,173.0
89.225776440,167.0
89.247509320,133.0
89.269242200,175.0
89.290975080,147.0
89.312707960,198.0
89.334440840,175.0
89.356173720,157.0
89.377906600,187.0
89.399639480,177.0
89.421372360,148.0
89.443105240,161.0
89.464838120,150.0
89.486571000,147.0
89.508303880,164.0
89.530036760,166.0
89.551769640,165.0
89.573502520,163.0
89.595235400,148.0
89.616968280,160.0
89.638701160,166.0
89.660434040,147.0
89.682166920,138.0
89.703899800,184.0
89.725632680,174.0
89.747365560,178.0
89.769098440,172.0
89.790831320,167.0
89.812564200,141.0
89.834297080,176.0
89.856029960,173.0
89.877762840,166.0
89.899495720,157.0
89.921228600,167.0
89.942961480,178.0
89.964694360,179.0
89.986427240,175.0
90.008160120,193.0
90.029893000,161.0
90.051625880,168.0
90.073358760,185.0
90.095091640,191.0
90.116824520,151.0
90.138557400,190.0
90.160290280,166.0
90.182023160,196.0
90.203756040,181.0
90.225488920,217.0
90.247221800,202.0
90.268954680,229.0
90.290687560,248.0
90.312420440,259.0
90.334153320,311.0
90.355886200,391.0
90.377619080,406.0
90.399351960,464.0
90.421084840,441.0
90.442817720,402.0
90.464550600,383.0
90.486283480,326.0
90.508016360,310.0
90.529749240,303.0
90.551482120,275.0
90.573215000,275.0
90.594947880,262.0
90.616680760,304.0
90.638413640,287.0
90.660146520,276.0
90.681879400,326.0
90.703612280,325.0
90.725345160,312.0
90.747078040,256.0
90.768810920,268.0
90.790543800,245.0
90.812276680,210.0
90.834009560,214.0
90.855742440,183.0
90.877475320,184.0
90.899208200,178.0
90.920941080,171.0
90.942673960,180.0
90.964406840,176.0
90.986139720,177.0
91.007872600,176.0
91.029605480,183.0
91.051338360,167.0
91.073071240,180.0
91.094804120,189.0
91.116537000,162.0
91.138269880,166.0
91.160002760,155.0
91.181735640,171.0
91.203468520,180.0
91.225201400,183.0
91.246934280,175.0
91.268667160,163.0
91.290400040,169.0
91.312132920,173.0
91.333865800,149.0
91.355598680,176.0
91.377331560,179.0
91.399064440,162.0
91.420797320,177.0
91.442530200,172.0
91.464263080,158.0
91.485995960,172.0
91.507728840,161.0
91.529461720,169.0
91.551194600,139.0
91.572927480,151.0
91.594660360,175.0
91.616393240,131.0
91.638126120,153.0
91.659859000,144.0
91.681591880,160.0
91.703324760,164.0
91.725057640,158.0
91.746790520,136.0
91.768523400,153.0
91.790256280,171.0
91.811989160,168.0
91.833722040,158.0
91.855454920,175.0
91.877187800,128.0
91.898920680,130.0
91.920653560,165.0
91.942386440,157.0
91.964119320,143.0
91.985852200,168.0
92.007585080,158.0
92.029317960,158.0
92.051050840,154.0
92.072783720,142.0
92.094516600,161.0
92.116249480,132.0
92.137982360,171.0
92.159715240,145.0
92.181448120,157.0
92.203181000,184.0
92.224913880,161.0
92.246646760,145.0
92.268379640,144.0
92.290112520,157.0
92.311845400,157.0
92.333578280,142.0
92.355311160,145.0
92.377044040,163.0
92.398776920,159.0
92.420509800,156.0
92.442242680,159.0
92.463975560,154.0
92.485708440,165.0
92.507441320,176.0
92.529174200,156.0
92.550907080,132.0
92.572639960,155.0
92.594372840,176.0
92.616105720,155.0
92.637838600,163.0
92.659571480,147.0
92.681304360,120.0
92.703037240,184.0
92.724770120,139.0
92.746503000,154.0
92.768235880,159.0
92.789968760,133.0
92.811701640,147.0
92.833434520,159.0
92.855167400,124.0
92.876900280,157.0
92.898633160,151.0
92.920366040,154.0
92.942098920,136.0
92.963831800,146.0
92.985564680,134.0
93.007297560,159.0
93.029030440,148.0
93.050763320,152.0
93.072496200,157.0
93.094229080,163.0
93.115961960,176.0
93.137694840,153.0
93.159427720,149.0
93.181160600,128.0
93.202893480,169.0
93.224626360,153.0
93.246359240,157.0
93.268092120,166.0
93.289825000,131.0
93.311557880,152.0
93.333290760,140.0
93.355023640,144.0
93.376756520,157.0
93.398489400,160.0
93.420222280,173.0
93.441955160,142.0
93.463688040,163.0
93.485420920,158.0
93.507153800,131.0
93.528886680,156.0
93.550619560,135.0
93.572352440,135.0
93.594085320,166.0
93.615818200,154.0
93.637551080,153.0
93.659283960,158.0
93.681016840,165.0
93.702749720,144.0
93.724482600,141.0
93.746215480,170.0
93.767948360,157.0
93.789681240,150.0
93.811414120,141.0
93.833147000,140.0
93.854879880,138.0
93.876612760,136.0
93.898345640,136.0
93.920078520,145.0
93.941811400,155.0
93.963544280,181.0
93.985277160,147.0
94.007010040,148.0
94.028742920,148.0
94.050475800,141.0
94.072208680,173.0
94.093941560,179.0
94.115674440,147.0
94.137407320,152.0
94.159140200,137.0
94.180873080,126.0
94.202605960,153.0
94.224338840,151.0
94.246071720,161.0
94.267804600,144.0
94.289537480,164.0
94.311270360,173.0
94.333003240,167.0
94.354736120,155.0
94.376469000,170.0
94.398201880,157.0
94.419934760,153.0
94.441667640,137.0
94.463400520,141.0
94.485133400,142.0
94.506866280,147.0
94.528599160,145.0
94.550332040,162.0
94.572064920,155.0
94.593797800,178.0
94.615530680,143.0
94.637263560,127.0
94.658996440,141.0
94.680729320,177.0
94.702462200,151.0
94.724195080,181.0
94.745927960,146.0
94.767660840,151.0
94.789393720,161.0
94.811126600,192.0
94.832859480,163.0
94.854592360,137.0
94.876325240,149.0
94.898058120,153.0
94.919791000,154.0
94.941523880,151.0
94.963256760,154.0
94.984989640,146.0
95.006722520,162.0
95.028455400,147.0
95.050188280,137.0
95.071921160,166.0
95.093654040,161.0
95.115386920,156.0
95.137119800,168.0
95.158852680,171.0
95.180585560,148.0
95.202318440,159.0
95.224051320,155.0
95.245784200,159.0
95.267517080,146.0
95.289249960,169.0
95.310982840,139.0
95.332715720,149.0
95.354448600,163.0
95.376181480,170.0
95.397914360,159.0
95.419647240,138.0
95.441380120,164.0
95.463113000,165.0
95.484845880,162.0
95.506578760,159.0
95.528311640,163.0
95.550044520,168.0
95.571777400,190.0
95.593510280,158.0
95.615243160,216.0
95.636976040,145.0
95.658708920,158.0
95.680441800,152.0
95.702174680,162.0
95.723907560,160.0
95.745640440,152.0
95.767373320,159.0
95.789106200,161.0
95.810839080,152.0
95.832571960,154.0
95.854304840,161.0
95.876037720,155.0
95.897770600,152.0
95.919503480,165.0
95.941236360,165.0
95.962969240,174.0
95.984702120,148.0
96.006435000,145.0
96.028167880,151.0
96.049900760,173.0
96.071633640,154.0
96.093366520,176.0
96.115099400,176.0
96.136832280,164.0
96.158565160,143.0
96.180298040,164.0
96.202030920,164.0
96.223763800,148.0
96.245496680,138.0
96.267229560,144.0
96.288962440,161.0
96.310695320,173.0
96.332428200,159.0
96.354161080,145.0
96.375893960,146.0
96.397626840,173.0
96.419359720,162.0
96.441092600,168.0
96.462825480,138.0
96.484558360,159.0
96.506291240,138.0
96.528024120,163.0
96.549757000,157.0
96.571489880,170.0
96.593222760,157.0
96.614955640,170.0
96.636688520,184.0
96.658421400,165.0
96.680154280,149.0
96.701887160,159.0
96.723620040,166.0
96.745352920,158.0
96.767085800,166.0
96.788818680,160.0
96.810551560,155.0
96.832284440,167.0
96.854017320,153.0
96.875750200,141.0
96.897483080,150.0
96.919215960,180.0
96.940948840,176.0
96.962681720,168.0
96.984414600,172.0
97.006147480,184.0
97.027880360,167.0
97.049613240,153.0
97.071346120,158.0
97.093079000,172.0
97.114811880,149.0
97.136544760,161.0
97.158277640,146.0
97.180010520,161.0
97.201743400,170.0
97.223476280,168.0
97.245209160,159.0
97.266942040,162.0
97.288674920,154.0
97.310407800,149.0
97.332140680,157.0
97.353873560,158.0
97.375606440,147.0
97.397339320,154.0
97.419072200,175.0
97.440805080,157.0
97.462537960,146.0
97.484270840,176.0
97.506003720,148.0
97.527736600,142.0
97.549469480,147.0
97.571202360,159.0
97.592935240,125.0
97.614668120,158.0
97.636401000,155.0
97.658133880,142.0
97.679866760,145.0
97.701599640,177.0
97.723332520,164.0
97.745065400,160.0
97.766798280,155.0
97.788531160,141.0
97.810264040,170.0
97.831996920,149.0
97.853729800,152.0
97.875462680,151.0
97.897195560,176.0
97.918928440,168.0
97.940661320,152.0
97.962394200,177.0
97.984127080,165.0
98.005859960,164.0
98.027592840,154.0
98.049325720,162.0
98.071058600,155.0
98.092791480,151.0
98.114524360,127.0
98.136257240,182.0
98.157990120,130.0
98.179723000,152.0
98.201455880,160.0
98.223188760,142.0
98.244921640,132.0
98.266654520,151.0
98.288387400,186.0
98.310120280,161.0
98.331853160,171.0
98.353586040,136.0
98.375318920,162.0
98.397051800,145.0
98.418784680,177.0
98.440517560,152.0
98.462250440,192.0
98.483983320,163.0
98.505716200,143.0
98.527449080,165.0
98.549181960,148.0
98.570914840,168.0
98.592647720,154.0
98.614380600,172.0
98.636113480,150.0
98.657846360,150.0
98.679579240,183.0
98.701312120,165.0
98.723045000,161.0
98.744777880,156.0
98.766510760,190.0
98.788243640,179.0
98.809976520,172.0
98.831709400,144.0
98.853442280,156.0
98.875175160,168.0
98.896908040,144.0
98.918640920,154.0
98.940373800,146.0
98.962106680,172.0
98.983839560,178.0
99.005572440,161.0
99.027305320,170.0
99.049038200,167.0
99.070771080,129.0
99.092503960,142.0
99.114236840,151.0
99.135969720,150.0
99.157702600,157.0
99.179435480,164.0
99.201168360,175.0
99.222901240,151.0
99.244634120,151.0
99.266367000,175.0
99.288099880,152.0
99.309832760,154.0
99.331565640,153.0
99.353298520,160.0
99.375031400,142.0
99.396764280,155.0
99.418497160,166.0
99.440230040,141.0
99.461962920,174.0
99.483695800,148.0
99.505428680,170.0
99.527161560,161.0
99.548894440,158.0
99.570627320,154.0
99.592360200,174.0
99.614093080,154.0
99.635825960,159.0
99.657558840,181.0
99.679291720,170.0
99.701024600,179.0
99.722757480,151.0
99.744490360,168.0
99.766223240,182.0
99.787956120,177.0
99.809689000,159.0
99.831421880,169.0
99.853154760,188.0
99.874887640,185.0
99.896620520,164.0
99.918353400,172.0
99.940086280,178.0
99.961819160,155.0
99.983552040,177.0
100.005284920,160.0
100.027017800,171.0
100.048750680,169.0
100.070483560,138.0
100.092216440,178.0
100.113949320,140.0
100.135682200,174.0
100.157415080,175.0
100.179147960,160.0
100.200880840,151.0
100.222613720,156.0
100.244346600,192.0
100.266079480,160.0
100.287812360,154.0
100.309545240,164.0
100.331278120,165.0
100.353011000,155.0
100.374743880,154.0
100.396476760,206.0
100.418209640,199.0
100.439942520,207.0
100.461675400,176.0
100.483408280,179.0
100.505141160,189.0
100.526874040,179.0
100.548606920,189.0
100.570339800,177.0
100.592072680,180.0
100.613805560,172.0
100.635538440,212.0
100.657271320,196.0
100.679004200,197.0
100.700737080,198.0
100.722469960,199.0
100.744202840,188.0
100.765935720,233.0
100.787668600,226.0
100.809401480,245.0
100.831134360,226.0
100.852867240,263.0
100.874600120,246.0
100.896333000,268.0
100.918065880,304.0
100.939798760,332.0
100.961531640,350.0
100.983264520,364.0
101.004997400,439.0
101.026730280,468.0
101.048463160,556.0
101.070196040,681.0
101.091928920,781.0
101.113661800,964.0
101.135394680,1052.0
101.157127560,1029.0
101.178860440,1042.0
101.200593320,1010.0
101.222326200,890.0
101.244059080,853.0
101.265791960,733.0
101.287524840,622.0
101.309257720,538.0
101.330990600,493.0
101.352723480,492.0
101.374456360,533.0
101.396189240,484.0
101.417922120,542.0
101.439655000,568.0
101.461387880,607.0
101.483120760,677.0
101.504853640,704.0
101.526586520,694.0
101.548319400,629.0
101.570052280,587.0
101.591785160,469.0
101.613518040,427.0
101.635250920,425.0
101.656983800,370.0
101.678716680,334.0
101.700449560,266.0
101.722182440,245.0
101.743915320,266.0
101.765648200,270.0
101.787381080,237.0
101.809113960,228.0
101.830846840,216.0
101.852579720,216.0
101.874312600,218.0
101.896045480,218.0
101.917778360,193.0
101.939511240,217.0
101.961244120,191.0
101.982977000,185.0
102.004709880,177.0
102.026442760,199.0
102.048175640,182.0
102.069908520,164.0
102.091641400,171.0
102.113374280,177.0
102.135107160,180.0
102.156840040,182.0
102.178572920,193.0
102.200305800,203.0
102.222038680,178.0
102.243771560,181.0
102.265504440,196.0
102.287237320,176.0
102.308970200,189.0
102.330703080,177.0
102.352435960,173.0
102.374168840,166.0
102.395901720,183.0
102.417634600,163.0
102.439367480,198.0
102.461100360,186.0
102.482833240,164.0
102.504566120,181.0
102.526299000,190.0
102.548031880,182.0
102.569764760,161.0
102.591497640,160.0
102.613230520,194.0
102.634963400,190.0
102.656696280,181.0
102.678429160,195.0
102.700162040,199.0
102.721894920,147.0
102.743627800,174.0
102.765360680,168.0
102.787093560,187.0
102.808826440,188.0
102.830559320,179.0
102.852292200,184.0
102.874025080,168.0
102.895757960,163.0
102.917490840,190.0
102.939223720,178.0
102.960956600,177.0
102.982689480,158.0
103.004422360,176.0
103.026155240,162.0
103.047888120,190.0
103.069621000,154.0
103.091353880,186.0
103.113086760,192.0
103.134819640,182.0
103.156552520,186.0
103.178285400,183.0
103.200018280,202.0
103.221751160,184.0
103.243484040,141.0
103.265216920,184.0
103.286949800,183.0
103.308682680,187.0
103.330415560,181.0
103.352148440,174.0
103.373881320,196.0
103.395614200,170.0
103.417347080,161.0
103.439079960,180.0
103.460812840,159.0
103.482545720,159.0
103.504278600,173.0
103.526011480,159.0
103.547744360,179.0
103.569477240,153.0
103.591210120,177.0
103.612943000,185.0
103.634675880,175.0
103.656408760,174.0
103.678141640,181.0
103.699874520,166.0
103.721607400,169.0
103.743340280,150.0
103.765073160,179.0
103.786806040,178.0
103.808538920,161.0
103.830271800,196.0
103.852004680,179.0
103.873737560,156.0
103.895470440,186.0
103.917203320,165.0
103.938936200,168.0
103.960669080,182.0
103.982401960,172.0
104.004134840,140.0
104.025867720,151.0
104.047600600,161.0
104.069333480,189.0
104.091066360,165.0
104.112799240,168.0
104.134532120,171.0
104.156265000,159.0
104.177997880,183.0
104.199730760,159.0
104.221463640,183.0
104.243196520,175.0
104.264929400,180.0
104.286662280,187.0
104.308395160,184.0
104.330128040,161.0
104.351860920,167.0
104.373593800,184.0
104.395326680,173.0
104.417059560,175.0
104.438792440,165.0
104.460525320,155.0
104.482258200,170.0
104.503991080,173.0
104.525723960,144.0
104.547456840,184.0
104.569189720,147.0
104.590922600,186.0
104.612655480,182.0
104.634388360,206.0
104.656121240,159.0
104.677854120,158.0
104.699587000,188.0
104.721319880,182.0
104.743052760,188.0
104.764785640,170.0
104.786518520,161.0
104.808251400,160.0
104.829984280,175.0
104.851717160,178.0
104.873450040,167.0
104.895182920,184.0
104.916915800,165.0
104.938648680,147.0
104.960381560,179.0
104.982114440,189.0
105.003847320,183.0
105.025580200,187.0
105.047313080,187.0
105.069045960,166.0
105.090778840,193.0
105.112511720,178.0
105.134244600,182.0
105.155977480,207.0
105.177710360,198.0
105.199443240,177.0
105.221176120,194.0
105.242909000,188.0
105.264641880,177.0
105.286374760,167.0
105.308107640,185.0
105.329840520,183.0
105.351573400,189.0
105.373306280,198.0
105.395039160,200.0
105.416772040,176.0
105.438504920,184.0
105.460237800,191.0
105.481970680,169.0
105.503703560,185.0
105.525436440,179.0
105.547169320,189.0
105.568902200,161.0
105.590635080,202.0
105.612367960,202.0
105.634100840,191.0
105.655833720,179.0
105.677566600,195.0
105.699299480,167.0
105.721032360,188.0
105.742765240,170.0
105.764498120,176.0
105.786231000,184.0
105.807963880,219.0
105.829696760,207.0
105.851429640,204.0
105.873162520,218.0
105.894895400,186.0
105.916628280,206.0
105.938361160,189.0
105.960094040,185.0
105.981826920,187.0
106.003559800,175.0
106.025292680,179.0
106.047025560,181.0
106.068758440,194.0
106.090491320,210.0
106.112224200,179.0
106.133957080,204.0
106.155689960,159.0
106.177422840,181.0
106.199155720,205.0
106.220888600,188.0
106.242621480,183.0
106.264354360,168.0
106.286087240,191.0
106.307820120,181.0
106.329553000,175.0
106.351285880,182.0
106.373018760,169.0
106.394751640,195.0
106.416484520,190.0
106.438217400,187.0
106.459950280,180.0
106.481683160,195.0
106.503416040,193.0
106.525148920,213.0
106.546881800,182.0
106.568614680,201.0
106.590347560,177.0
106.612080440,178.0
106.633813320,163.0
106.655546200,185.0
106.677279080,195.0
106.699011960,158.0
106.720744840,194.0
106.742477720,184.0
106.764210600,185.0
106.785943480,175.0
106.807676360,177.0
106.829409240,192.0
106.851142120,211.0
106.872875000,222.0
106.894607880,174.0
106.916340760,201.0
106.938073640,174.0
106.959806520,167.0
106.981539400,177.0
107.003272280,212.0
107.025005160,215.0
107.046738040,184.0
107.068470920,205.0
107.090203800,204.0
107.111936680,191.0
107.133669560,205.0
107.155402440,176.0
107.177135320,161.0
107.198868200,218.0
107.220601080,216.0
107.242333960,208.0
107.264066840,191.0
107.285799720,188.0
107.307532600,231.0
107.329265480,198.0
107.350998360,208.0
107.372731240,219.0
107.394464120,215.0
107.416197000,205.0
107.437929880,228.0
107.459662760,223.0
107.481395640,201.0
107.503128520,223.0
107.524861400,230.0
107.546594280,233.0
107.568327160,257.0
107.590060040,262.0
107.611792920,243.0
107.633525800,280.0
107.655258680,329.0
107.676991560,311.0
107.698724440,316.0
107.720457320,364.0
107.742190200,376.0
107.763923080,442.0
107.785655960,420.0
107.807388840,405.0
107.829121720,442.0
107.850854600,397.0
107.872587480,348.0
107.894320360,308.0
107.916053240,339.0
107.937786120,360.0
107.959519000,302.0
107.981251880,316.0
108.002984760,279.0
108.024717640,289.0
108.046450520,287.0
108.068183400,280.0
108.089916280,280.0
108.111649160,284.0
108.133382040,313.0
108.155114920,342.0
108.176847800,308.0
108.198580680,324.0
108.220313560,291.0
108.242046440,308.0
108.263779320,298.0
108.285512200,292.0
108.307245080,263.0
108.328977960,261.0
108.350710840,285.0
108.372443720,233.0
108.394176600,242.0
108.415909480,205.0
108.437642360,226.0
108.459375240,222.0
108.481108120,232.0
108.502841000,222.0
108.524573880,246.0
108.546306760,220.0
108.568039640,233.0
108.589772520,222.0
108.611505400,203.0
108.633238280,184.0
108.654971160,201.0
108.676704040,184.0
108.698436920,222.0
108.720169800,213.0
108.741902680,184.0
108.763635560,220.0
108.785368440,195.0
108.807101320,183.0
108.828834200,222.0
108.850567080,223.0
108.872299960,202.0
108.894032840,212.0
108.915765720,184.0
108.937498600,238.0
108.959231480,225.0
108.980964360,182.0
109.002697240,209.0
109.024430120,216.0
109.046163000,209.0
109.067895880,187.0
109.089628760,260.0
109.111361640,217.0
109.133094520,224.0
109.154827400,214.0
109.176560280,234.0
109.198293160,227.0
109.220026040,265.0
109.241758920,238.0
109.263491800,235.0
109.285224680,233.0
109.306957560,244.0
109.328690440,211.0
109.350423320,270.0
109.372156200,240.0
109.393889080,278.0
109.415621960,229.0
109.437354840,248.0
109.459087720,276.0
109.480820600,231.0
109.502553480,281.0
109.524286360,287.0
109.546019240,282.0
109.567752120,301.0
109.589485000,309.0
109.611217880,306.0
109.632950760,364.0
109.654683640,312.0
109.676416520,353.0
109.698149400,382.0
109.719882280,382.0
109.741615160,443.0
109.763348040,433.0
109.785080920,464.0
109.806813800,477.0
109.828546680,575.0
109.850279560,641.0
109.872012440,686.0
109.893745320,800.0
109.915478200,932.0
109.937211080,1093.0
109.958943960,1211.0
109.980676840,1399.0
110.002409720,1670.0
