5.010866440 3886.0
5.032599320 3902.0
5.054332200 3792.0
5.076065080 3676.0
5.097797960 3618.0
5.119530840 3626.0
5.141263720 3610.0
5.162996600 3698.0
5.184729480 3570.0
5.206462360 3475.0
5.228195240 3390.0
5.249928120 3445.0
5.271661000 3353.0
5.293393880 3411.0
5.315126760 3285.0
5.336859640 3251.0
5.358592520 3157.0
5.380325400 3130.0
5.402058280 3241.0
5.423791160 3166.0
5.445524040 3069.0
5.467256920 3078.0
5.488989800 3026.0
5.510722680 2951.0
5.532455560 2980.0
5.554188440 2973.0
5.575921320 2832.0
5.597654200 2824.0
5.619387080 2921.0
5.641119960 2875.0
5.662852840 2818.0
5.684585720 2764.0
5.706318600 2762.0
5.728051480 2677.0
5.749784360 2700.0
5.771517240 2757.0
5.793250120 2705.0
5.814983000 2670.0
5.836715880 2663.0
5.858448760 2704.0
5.880181640 2664.0
5.901914520 2637.0
5.923647400 2592.0
5.945380280 2735.0
5.967113160 2528.0
5.988846040 2622.0
6.010578920 2445.0
6.032311800 2574.0
6.054044680 2563.0
6.075777560 2494.0
6.097510440 2466.0
6.119243320 2492.0
6.140976200 2433.0
6.162709080 2468.0
6.184441960 2494.0
6.206174840 2599.0
6.227907720 2493.0
6.249640600 2477.0
6.271373480 2494.0
6.293106360 2461.0
6.314839240 2383.0
6.336572120 2453.0
6.358305000 2536.0
6.380037880 2391.0
6.401770760 2448.0
6.423503640 2437.0
6.445236520 2412.0
6.466969400 2234.0
6.488702280 2388.0
6.510435160 2337.0
6.532168040 2380.0
6.553900920 2401.0
6.575633800 2341.0
6.597366680 2445.0
6.619099560 2252.0
6.640832440 2370.0
6.662565320 2329.0
6.684298200 2329.0
6.706031080 2371.0
6.727763960 2285.0
6.749496840 2311.0
6.771229720 2275.0
6.792962600 2228.0
6.814695480 2395.0
6.836428360 2282.0
6.858161240 2272.0
6.879894120 2317.0
6.901627000 2259.0
6.923359880 2293.0
6.945092760 2231.0
6.966825640 2306.0
6.988558520 2308.0
7.010291400 2237.0
7.032024280 2235.0
7.053757160 2249.0
7.075490040 2238.0
7.097222920 2271.0
7.118955800 2248.0
7.140688680 2272.0
7.162421560 2218.0
7.184154440 2165.0
7.205887320 2190.0
7.227620200 2263.0
7.249353080 2223.0
7.271085960 2189.0
7.292818840 2218.0
7.314551720 2272.0
7.336284600 2178.0
7.358017480 2249.0
7.379750360 2261.0
7.401483240 2211.0
7.423216120 2259.0
7.444949000 2231.0
7.466681880 2168.0
7.488414760 2227.0
7.510147640 2233.0
7.531880520 2166.0
7.553613400 2184.0
7.575346280 2174.0
7.597079160 2198.0
7.618812040 2225.0
7.640544920 2152.0
7.662277800 2235.0
7.684010680 2216.0
7.705743560 2138.0
7.727476440 2284.0
7.749209320 2224.0
7.770942200 2222.0
7.792675080 2159.0
7.814407960 2207.0
7.836140840 2202.0
7.857873720 2239.0
7.879606600 2189.0
7.901339480 2181.0
7.923072360 2199.0
7.944805240 2150.0
7.966538120 2210.0
7.988271000 2203.0
8.010003880 2188.0
8.031736760 2266.0
8.053469640 2233.0
8.075202520 2171.0
8.096935400 2169.0
8.118668280 2218.0
8.140401160 2160.0
8.162134040 2229.0
8.183866920 2237.0
8.205599800 2246.0
8.227332680 2170.0
8.249065560 2178.0
8.270798440 2212.0
8.292531320 2269.0
8.314264200 2210.0
8.335997080 2235.0
8.357729960 2158.0
8.379462840 2252.0
8.401195720 2216.0
8.422928600 2246.0
8.444661480 2282.0
8.466394360 2149.0
8.488127240 2265.0
8.509860120 2213.0
8.531593000 2124.0
8.553325880 2238.0
8.575058760 2192.0
8.596791640 2148.0
8.618524520 2180.0
8.640257400 2128.0
8.661990280 2159.0
8.683723160 2230.0
8.705456040 2282.0
8.727188920 2176.0
8.748921800 2243.0
8.770654680 2205.0
8.792387560 2115.0
8.814120440 2216.0
8.835853320 2215.0
8.857586200 2180.0
8.879319080 2226.0
8.901051960 2264.0
8.922784840 2318.0
8.944517720 2188.0
8.966250600 2110.0
8.987983480 2208.0
9.009716360 2287.0
9.031449240 2200.0
9.053182120 2097.0
9.074915000 2193.0
9.096647880 2142.0
9.118380760 2184.0
9.140113640 2214.0
9.161846520 2269.0
9.183579400 2157.0
9.205312280 2201.0
9.227045160 2122.0
9.248778040 2144.0
9.270510920 2225.0
9.292243800 2220.0
9.313976680 2135.0
9.335709560 2245.0
9.357442440 2230.0
9.379175320 2230.0
9.400908200 2250.0
9.422641080 2300.0
9.444373960 2168.0
9.466106840 2223.0
9.487839720 2237.0
9.509572600 2202.0
9.531305480 2224.0
9.553038360 2170.0
9.574771240 2286.0
9.596504120 2197.0
9.618237000 2229.0
9.639969880 2266.0
9.661702760 2232.0
9.683435640 2115.0
9.705168520 2266.0
9.726901400 2238.0
9.748634280 2166.0
9.770367160 2138.0
9.792100040 2245.0
9.813832920 2194.0
9.835565800 2199.0
9.857298680 2128.0
9.879031560 2264.0
9.900764440 2132.0
9.922497320 2223.0
9.944230200 2203.0
9.965963080 2269.0
9.987695960 2193.0
10.009428840 2221.0
10.031161720 2230.0
10.052894600 2216.0
10.074627480 2184.0
10.096360360 2277.0
10.118093240 2166.0
10.139826120 2193.0
10.161559000 2223.0
10.183291880 2151.0
10.205024760 2173.0
10.226757640 2166.0
10.248490520 2189.0
10.270223400 2266.0
10.291956280 2149.0
10.313689160 2232.0
10.335422040 2175.0
10.357154920 2243.0
10.378887800 2291.0
10.400620680 2205.0
10.422353560 2118.0
10.444086440 2111.0
10.465819320 2211.0
10.487552200 2219.0
10.509285080 2227.0
10.531017960 2235.0
10.552750840 2202.0
10.574483720 2194.0
10.596216600 2201.0
10.617949480 2228.0
10.639682360 2169.0
10.661415240 2133.0
10.683148120 2159.0
10.704881000 2111.0
10.726613880 2235.0
10.748346760 2278.0
10.770079640 2128.0
10.791812520 2199.0
10.813545400 2214.0
10.835278280 2212.0
10.857011160 2210.0
10.878744040 2168.0
10.900476920 2258.0
10.922209800 2158.0
10.943942680 2164.0
10.965675560 2219.0
10.987408440 2258.0
11.009141320 2169.0
11.030874200 2263.0
11.052607080 2194.0
11.074339960 2226.0
11.096072840 2142.0
11.117805720 2195.0
11.139538600 2186.0
11.161271480 2115.0
11.183004360 2154.0
11.204737240 2269.0
11.226470120 2225.0
11.248203000 2091.0
11.269935880 2206.0
11.291668760 2259.0
11.313401640 2184.0
11.335134520 2156.0
11.356867400 2146.0
11.378600280 2146.0
11.400333160 2205.0
11.422066040 2256.0
11.443798920 2190.0
11.465531800 2167.0
11.487264680 2123.0
11.508997560 2138.0
11.530730440 2195.0
11.552463320 2138.0
11.574196200 2216.0
11.595929080 2115.0
11.617661960 2128.0
11.639394840 2126.0
11.661127720 2100.0
11.682860600 2164.0
11.704593480 2155.0
11.726326360 2263.0
11.748059240 2141.0
11.769792120 2071.0
11.791525000 2148.0
11.813257880 2024.0
11.834990760 2218.0
11.856723640 2120.0
11.878456520 2077.0
11.900189400 2183.0
11.921922280 2236.0
11.943655160 2096.0
11.965388040 2095.0
11.987120920 2160.0
12.008853800 2039.0
12.030586680 2112.0
12.052319560 2008.0
12.074052440 2148.0
12.095785320 2029.0
12.117518200 2060.0
12.139251080 2182.0
12.160983960 2178.0
12.182716840 2203.0
12.204449720 2129.0
12.226182600 2077.0
12.247915480 2154.0
12.269648360 2171.0
12.291381240 2058.0
12.313114120 2155.0
12.334847000 2015.0
12.356579880 2095.0
12.378312760 2183.0
12.400045640 2025.0
12.421778520 2135.0
12.443511400 2190.0
12.465244280 2083.0
12.486977160 2037.0
12.508710040 2032.0
12.530442920 2050.0
12.552175800 2055.0
12.573908680 2069.0
12.595641560 2158.0
12.617374440 2088.0
12.639107320 2041.0
12.660840200 2090.0
12.682573080 2103.0
12.704305960 2100.0
12.726038840 2001.0
12.747771720 2024.0
12.769504600 2035.0
12.791237480 2055.0
12.812970360 2126.0
12.834703240 2046.0
12.856436120 2173.0
12.878169000 2030.0
12.899901880 2022.0
12.921634760 2072.0
12.943367640 2095.0
12.965100520 2032.0
12.986833400 2073.0
13.008566280 2093.0
13.030299160 2076.0
13.052032040 2060.0
13.073764920 2094.0
13.095497800 2108.0
13.117230680 2104.0
13.138963560 2035.0
13.160696440 1967.0
13.182429320 2042.0
13.204162200 2091.0
13.225895080 2050.0
13.247627960 1965.0
13.269360840 2059.0
13.291093720 2024.0
13.312826600 2151.0
13.334559480 2010.0
13.356292360 2052.0
13.378025240 1998.0
13.399758120 1911.0
13.421491000 2054.0
13.443223880 2039.0
13.464956760 1951.0
13.486689640 2002.0
13.508422520 1922.0
13.530155400 2095.0
13.551888280 2066.0
13.573621160 2012.0
13.595354040 2031.0
13.617086920 1975.0
13.638819800 1971.0
13.660552680 2035.0
13.682285560 1959.0
13.704018440 1932.0
13.725751320 1970.0
13.747484200 2045.0
13.769217080 1989.0
13.790949960 1969.0
13.812682840 2016.0
13.834415720 1942.0
13.856148600 2051.0
13.877881480 2030.0
13.899614360 1941.0
13.921347240 1903.0
13.943080120 1954.0
13.964813000 1916.0
13.986545880 1906.0
14.008278760 1912.0
14.030011640 1970.0
14.051744520 1965.0
14.073477400 1929.0
14.095210280 1974.0
14.116943160 1944.0
14.138676040 1934.0
14.160408920 1943.0
14.182141800 1943.0
14.203874680 1990.0
14.225607560 1979.0
14.247340440 1948.0
14.269073320 1884.0
14.290806200 1964.0
14.312539080 1925.0
14.334271960 1888.0
14.356004840 1929.0
14.377737720 1938.0
14.399470600 1990.0
14.421203480 1939.0
14.442936360 1941.0
14.464669240 1894.0
14.486402120 1843.0
14.508135000 1909.0
14.529867880 1871.0
14.551600760 1901.0
14.573333640 1778.0
14.595066520 1903.0
14.616799400 1997.0
14.638532280 1861.0
14.660265160 1907.0
14.681998040 1898.0
14.703730920 1862.0
14.725463800 1861.0
14.747196680 1842.0
14.768929560 1765.0
14.790662440 1860.0
14.812395320 1961.0
14.834128200 1872.0
14.855861080 1912.0
14.877593960 1857.0
14.899326840 1877.0
14.921059720 1961.0
14.942792600 1782.0
14.964525480 1816.0
14.986258360 1868.0
15.007991240 1898.0
15.029724120 1868.0
15.051457000 1852.0
15.073189880 1791.0
15.094922760 1916.0
15.116655640 1817.0
15.138388520 1767.0
15.160121400 1751.0
15.181854280 1795.0
15.203587160 1848.0
15.225320040 1791.0
15.247052920 1848.0
15.268785800 1789.0
15.290518680 1832.0
15.312251560 1886.0
15.333984440 1809.0
15.355717320 1769.0
15.377450200 1806.0
15.399183080 1757.0
15.420915960 1797.0
15.442648840 1773.0
15.464381720 1751.0
15.486114600 1768.0
15.507847480 1731.0
15.529580360 1781.0
15.551313240 1731.0
15.573046120 1757.0
15.594779000 1701.0
15.616511880 1703.0
15.638244760 1748.0
15.659977640 1798.0
15.681710520 1658.0
15.703443400 1755.0
15.725176280 1686.0
15.746909160 1706.0
15.768642040 1714.0
15.790374920 1733.0
15.812107800 1764.0
15.833840680 1687.0
15.855573560 1726.0
15.877306440 1777.0
15.899039320 1740.0
15.920772200 1706.0
15.942505080 1776.0
15.964237960 1673.0
15.985970840 1772.0
16.007703720 1723.0
16.029436600 1693.0
16.051169480 1768.0
16.072902360 1767.0
16.094635240 1725.0
16.116368120 1656.0
16.138101000 1630.0
16.159833880 1720.0
16.181566760 1626.0
16.203299640 1656.0
16.225032520 1657.0
16.246765400 1734.0
16.268498280 1657.0
16.290231160 1645.0
16.311964040 1719.0
16.333696920 1590.0
16.355429800 1602.0
16.377162680 1606.0
16.398895560 1641.0
16.420628440 1577.0
16.442361320 1770.0
16.464094200 1655.0
16.485827080 1734.0
16.507559960 1677.0
16.529292840 1687.0
16.551025720 1702.0
16.572758600 1626.0
16.594491480 1681.0
16.616224360 1640.0
16.637957240 1600.0
16.659690120 1658.0
16.681423000 1594.0
16.703155880 1653.0
16.724888760 1620.0
16.746621640 1589.0
16.768354520 1647.0
16.790087400 1623.0
16.811820280 1710.0
16.833553160 1618.0
16.855286040 1576.0
16.877018920 1570.0
16.898751800 1645.0
16.920484680 1621.0
16.942217560 1614.0
16.963950440 1617.0
16.985683320 1506.0
17.007416200 1598.0
17.029149080 1639.0
17.050881960 1537.0
17.072614840 1591.0
17.094347720 1575.0
17.116080600 1635.0
17.137813480 1509.0
17.159546360 1600.0
17.181279240 1544.0
17.203012120 1503.0
17.224745000 1598.0
17.246477880 1494.0
17.268210760 1551.0
17.289943640 1561.0
17.311676520 1521.0
17.333409400 1451.0
17.355142280 1433.0
17.376875160 1566.0
17.398608040 1574.0
17.420340920 1557.0
17.442073800 1544.0
17.463806680 1548.0
17.485539560 1551.0
17.507272440 1522.0
17.529005320 1567.0
17.550738200 1532.0
17.572471080 1473.0
17.594203960 1392.0
17.615936840 1503.0
17.637669720 1525.0
17.659402600 1439.0
17.681135480 1456.0
17.702868360 1516.0
17.724601240 1459.0
17.746334120 1529.0
17.768067000 1451.0
17.789799880 1464.0
17.811532760 1487.0
17.833265640 1448.0
17.854998520 1531.0
17.876731400 1433.0
17.898464280 1432.0
17.920197160 1552.0
17.941930040 1437.0
17.963662920 1414.0
17.985395800 1393.0
18.007128680 1457.0
18.028861560 1343.0
18.050594440 1456.0
18.072327320 1449.0
18.094060200 1351.0
18.115793080 1404.0
18.137525960 1381.0
18.159258840 1464.0
18.180991720 1475.0
18.202724600 1419.0
18.224457480 1392.0
18.246190360 1454.0
18.267923240 1452.0
18.289656120 1485.0
18.311389000 1427.0
18.333121880 1374.0
18.354854760 1373.0
18.376587640 1363.0
18.398320520 1425.0
18.420053400 1383.0
18.441786280 1455.0
18.463519160 1374.0
18.485252040 1412.0
18.506984920 1392.0
18.528717800 1414.0
18.550450680 1429.0
18.572183560 1378.0
18.593916440 1422.0
18.615649320 1419.0
18.637382200 1359.0
18.659115080 1434.0
18.680847960 1378.0
18.702580840 1389.0
18.724313720 1402.0
18.746046600 1400.0
18.767779480 1399.0
18.789512360 1434.0
18.811245240 1335.0
18.832978120 1328.0
18.854711000 1383.0
18.876443880 1273.0
18.898176760 1349.0
18.919909640 1344.0
18.941642520 1357.0
18.963375400 1345.0
18.985108280 1238.0
19.006841160 1369.0
19.028574040 1346.0
19.050306920 1477.0
19.072039800 1356.0
19.093772680 1336.0
19.115505560 1403.0
19.137238440 1345.0
19.158971320 1309.0
19.180704200 1271.0
19.202437080 1270.0
19.224169960 1253.0
19.245902840 1337.0
19.267635720 1332.0
19.289368600 1318.0
19.311101480 1306.0
19.332834360 1339.0
19.354567240 1335.0
19.376300120 1296.0
19.398033000 1322.0
19.419765880 1321.0
19.441498760 1400.0
19.463231640 1295.0
19.484964520 1224.0
19.506697400 1295.0
19.528430280 1270.0
19.550163160 1402.0
19.571896040 1287.0
19.593628920 1260.0
19.615361800 1292.0
19.637094680 1271.0
19.658827560 1225.0
19.680560440 1286.0
19.702293320 1303.0
19.724026200 1238.0
19.745759080 1304.0
19.767491960 1319.0
19.789224840 1231.0
19.810957720 1279.0
19.832690600 1237.0
19.854423480 1238.0
19.876156360 1309.0
19.897889240 1274.0
19.919622120 1256.0
19.941355000 1273.0
19.963087880 1237.0
19.984820760 1182.0
20.006553640 1193.0
20.028286520 1271.0
20.050019400 1297.0
20.071752280 1265.0
20.093485160 1204.0
20.115218040 1197.0
20.136950920 1211.0
20.158683800 1236.0
20.180416680 1265.0
20.202149560 1205.0
20.223882440 1214.0
20.245615320 1237.0
20.267348200 1241.0
20.289081080 1289.0
20.310813960 1219.0
20.332546840 1296.0
20.354279720 1224.0
20.376012600 1173.0
20.397745480 1230.0
20.419478360 1207.0
20.441211240 1209.0
20.462944120 1177.0
20.484677000 1192.0
20.506409880 1200.0
20.528142760 1204.0
20.549875640 1235.0
20.571608520 1188.0
20.593341400 1183.0
20.615074280 1192.0
20.636807160 1171.0
20.658540040 1232.0
20.680272920 1138.0
20.702005800 1213.0
20.723738680 1159.0
20.745471560 1166.0
20.767204440 1169.0
20.788937320 1190.0
20.810670200 1161.0
20.832403080 1194.0
20.854135960 1224.0
20.875868840 1187.0
20.897601720 1182.0
20.919334600 1172.0
20.941067480 1193.0
20.962800360 1127.0
20.984533240 1153.0
21.006266120 1172.0
21.027999000 1189.0
21.049731880 1205.0
21.071464760 1161.0
21.093197640 1151.0
21.114930520 1156.0
21.136663400 1117.0
21.158396280 1174.0
21.180129160 1083.0
21.201862040 1101.0
21.223594920 1156.0
21.245327800 1061.0
21.267060680 1069.0
21.288793560 1140.0
21.310526440 1101.0
21.332259320 1156.0
21.353992200 1200.0
21.375725080 1186.0
21.397457960 1149.0
21.419190840 1149.0
21.440923720 1107.0
21.462656600 1086.0
21.484389480 1087.0
21.506122360 1093.0
21.527855240 1057.0
21.549588120 1133.0
21.571321000 1091.0
21.593053880 1143.0
21.614786760 1083.0
21.636519640 1100.0
21.658252520 1092.0
21.679985400 1059.0
21.701718280 1067.0
21.723451160 1088.0
21.745184040 1083.0
21.766916920 1097.0
21.788649800 1068.0
21.810382680 1094.0
21.832115560 1071.0
21.853848440 1033.0
21.875581320 1048.0
21.897314200 1044.0
21.919047080 1039.0
21.940779960 1027.0
21.962512840 1085.0
21.984245720 1072.0
22.005978600 1097.0
22.027711480 1032.0
22.049444360 1010.0
22.071177240 1026.0
22.092910120 1097.0
22.114643000 1074.0
22.136375880 1031.0
22.158108760 978.0
22.179841640 1051.0
22.201574520 1065.0
22.223307400 982.0
22.245040280 1031.0
22.266773160 1008.0
22.288506040 1066.0
22.310238920 1052.0
22.331971800 1080.0
22.353704680 1053.0
22.375437560 987.0
22.397170440 1099.0
22.418903320 1002.0
22.440636200 1023.0
22.462369080 1033.0
22.484101960 973.0
22.505834840 1015.0
22.527567720 1017.0
22.549300600 1043.0
22.571033480 1011.0
22.592766360 1026.0
22.614499240 973.0
22.636232120 976.0
22.657965000 954.0
22.679697880 961.0
22.701430760 1013.0
22.723163640 967.0
22.744896520 979.0
22.766629400 1023.0
22.788362280 999.0
22.810095160 970.0
22.831828040 1029.0
22.853560920 995.0
22.875293800 1017.0
22.897026680 1005.0
22.918759560 998.0
22.940492440 987.0
22.962225320 1031.0
22.983958200 995.0
23.005691080 1024.0
23.027423960 1046.0
23.049156840 1012.0
23.070889720 995.0
23.092622600 926.0
23.114355480 907.0
23.136088360 993.0
23.157821240 947.0
23.179554120 938.0
23.201287000 944.0
23.223019880 920.0
23.244752760 965.0
23.266485640 966.0
23.288218520 914.0
23.309951400 940.0
23.331684280 913.0
23.353417160 986.0
23.375150040 930.0
23.396882920 1068.0
23.418615800 905.0
23.440348680 915.0
23.462081560 916.0
23.483814440 942.0
23.505547320 944.0
23.527280200 948.0
23.549013080 944.0
23.570745960 967.0
23.592478840 955.0
23.614211720 903.0
23.635944600 932.0
23.657677480 917.0
23.679410360 950.0
23.701143240 884.0
23.722876120 885.0
23.744609000 965.0
23.766341880 908.0
23.788074760 871.0
23.809807640 910.0
23.831540520 897.0
23.853273400 909.0
23.875006280 896.0
23.896739160 936.0
23.918472040 937.0
23.940204920 950.0
23.961937800 917.0
23.983670680 939.0
24.005403560 893.0
24.027136440 835.0
24.048869320 822.0
24.070602200 920.0
24.092335080 905.0
24.114067960 894.0
24.135800840 940.0
24.157533720 903.0
24.179266600 824.0
24.200999480 850.0
24.222732360 872.0
24.244465240 873.0
24.266198120 859.0
24.287931000 904.0
24.309663880 897.0
24.331396760 937.0
24.353129640 874.0
24.374862520 886.0
24.396595400 780.0
24.418328280 880.0
24.440061160 847.0
24.461794040 892.0
24.483526920 903.0
24.505259800 841.0
24.526992680 851.0
24.548725560 883.0
24.570458440 878.0
24.592191320 901.0
24.613924200 880.0
24.635657080 878.0
24.657389960 871.0
24.679122840 875.0
24.700855720 915.0
24.722588600 814.0
24.744321480 859.0
24.766054360 894.0
24.787787240 853.0
24.809520120 843.0
24.831253000 842.0
24.852985880 859.0
24.874718760 868.0
24.896451640 862.0
24.918184520 888.0
24.939917400 849.0
24.961650280 889.0
24.983383160 847.0
25.005116040 849.0
25.026848920 873.0
25.048581800 811.0
25.070314680 878.0
25.092047560 874.0
25.113780440 865.0
25.135513320 891.0
25.157246200 793.0
25.178979080 856.0
25.200711960 887.0
25.222444840 866.0
25.244177720 815.0
25.265910600 886.0
25.287643480 964.0
25.309376360 992.0
25.331109240 1086.0
25.352842120 1132.0
25.374575000 1230.0
25.396307880 1471.0
25.418040760 1808.0
25.439773640 2210.0
25.461506520 2555.0
25.483239400 2740.0
25.504972280 2601.0
25.526705160 2123.0
25.548438040 1803.0
25.570170920 1564.0
25.591903800 1270.0
25.613636680 980.0
25.635369560 903.0
25.657102440 874.0
25.678835320 816.0
25.700568200 845.0
25.722301080 863.0
25.744033960 841.0
25.765766840 822.0
25.787499720 798.0
25.809232600 842.0
25.830965480 766.0
25.852698360 796.0
25.874431240 794.0
25.896164120 765.0
25.917897000 747.0
25.939629880 760.0
25.961362760 846.0
25.983095640 833.0
26.004828520 813.0
26.026561400 778.0
26.048294280 742.0
26.070027160 772.0
26.091760040 833.0
26.113492920 770.0
26.135225800 793.0
26.156958680 739.0
26.178691560 754.0
26.200424440 755.0
26.222157320 780.0
26.243890200 799.0
26.265623080 739.0
26.287355960 806.0
26.309088840 756.0
26.330821720 824.0
26.352554600 729.0
26.374287480 772.0
26.396020360 807.0
26.417753240 743.0
26.439486120 751.0
26.461219000 786.0
26.482951880 777.0
26.504684760 819.0
26.526417640 757.0
26.548150520 729.0
26.569883400 743.0
26.591616280 761.0
26.613349160 768.0
26.635082040 789.0
26.656814920 711.0
26.678547800 784.0
26.700280680 766.0
26.722013560 782.0
26.743746440 766.0
26.765479320 746.0
26.787212200 834.0
26.808945080 814.0
26.830677960 775.0
26.852410840 753.0
26.874143720 733.0
26.895876600 730.0
26.917609480 701.0
26.939342360 799.0
26.961075240 845.0
26.982808120 812.0
27.004541000 801.0
27.026273880 716.0
27.048006760 793.0
27.069739640 818.0
27.091472520 832.0
27.113205400 788.0
27.134938280 846.0
27.156671160 891.0
27.178404040 937.0
27.200136920 998.0
27.221869800 1118.0
27.243602680 1204.0
27.265335560 1396.0
27.287068440 1724.0
27.308801320 2188.0
27.330534200 2802.0
27.352267080 3509.0
27.373999960 4254.0
27.395732840 4694.0
27.417465720 4328.0
27.439198600 3776.0
27.460931480 3251.0
27.482664360 2527.0
27.504397240 1871.0
27.526130120 1384.0
27.547863000 1065.0
27.569595880 923.0
27.591328760 907.0
27.613061640 804.0
27.634794520 872.0
27.656527400 790.0
27.678260280 822.0
27.699993160 810.0
27.721726040 780.0
27.743458920 761.0
27.765191800 759.0
27.786924680 771.0
27.808657560 735.0
27.830390440 721.0
27.852123320 709.0
27.873856200 696.0
27.895589080 780.0
27.917321960 683.0
27.939054840 699.0
27.960787720 663.0
27.982520600 714.0
28.004253480 715.0
28.025986360 700.0
28.047719240 707.0
28.069452120 731.0
28.091185000 740.0
28.112917880 746.0
28.134650760 707.0
28.156383640 707.0
28.178116520 764.0
28.199849400 748.0
28.221582280 769.0
28.243315160 660.0
28.265048040 700.0
28.286780920 689.0
28.308513800 735.0
28.330246680 751.0
28.351979560 755.0
28.373712440 735.0
28.395445320 772.0
28.417178200 725.0
28.438911080 725.0
28.460643960 775.0
28.482376840 793.0
28.504109720 887.0
28.525842600 941.0
28.547575480 1050.0
28.569308360 1259.0
28.591041240 1385.0
28.612774120 1427.0
28.634507000 1203.0
28.656239880 968.0
28.677972760 886.0
28.699705640 762.0
28.721438520 749.0
28.743171400 744.0
28.764904280 720.0
28.786637160 709.0
28.808370040 732.0
28.830102920 746.0
28.851835800 700.0
28.873568680 719.0
28.895301560 708.0
28.917034440 727.0
28.938767320 689.0
28.960500200 640.0
28.982233080 686.0
29.003965960 684.0
29.025698840 702.0
29.047431720 709.0
29.069164600 714.0
29.090897480 753.0
29.112630360 678.0
29.134363240 694.0
29.156096120 689.0
29.177829000 732.0
29.199561880 709.0
29.221294760 698.0
29.243027640 702.0
29.264760520 735.0
29.286493400 703.0
29.308226280 689.0
29.329959160 711.0
29.351692040 680.0
29.373424920 655.0
29.395157800 704.0
29.416890680 699.0
29.438623560 707.0
29.460356440 690.0
29.482089320 662.0
29.503822200 678.0
29.525555080 711.0
29.547287960 723.0
29.569020840 712.0
29.590753720 710.0
29.612486600 677.0
29.634219480 648.0
29.655952360 697.0
29.677685240 692.0
29.699418120 699.0
29.721151000 671.0
29.742883880 692.0
29.764616760 684.0
29.786349640 723.0
29.808082520 721.0
29.829815400 743.0
29.851548280 677.0
29.873281160 670.0
29.895014040 641.0
29.916746920 661.0
29.938479800 722.0
29.960212680 686.0
29.981945560 648.0
30.003678440 723.0
30.025411320 714.0
30.047144200 674.0
30.068877080 627.0
30.090609960 696.0
30.112342840 718.0
30.134075720 700.0
30.155808600 750.0
30.177541480 672.0
30.199274360 663.0
30.221007240 679.0
30.242740120 699.0
30.264473000 701.0
30.286205880 752.0
30.307938760 754.0
30.329671640 718.0
30.351404520 728.0
30.373137400 696.0
30.394870280 733.0
30.416603160 716.0
30.438336040 723.0
30.460068920 717.0
30.481801800 779.0
30.503534680 730.0
30.525267560 750.0
30.547000440 800.0
30.568733320 821.0
30.590466200 918.0
30.612199080 1008.0
30.633931960 1111.0
30.655664840 1108.0
30.677397720 1133.0
30.699130600 1103.0
30.720863480 1197.0
30.742596360 1184.0
30.764329240 1223.0
30.786062120 1233.0
30.807795000 1196.0
30.829527880 1249.0
30.851260760 1207.0
30.872993640 1306.0
30.894726520 1231.0
30.916459400 1248.0
30.938192280 1330.0
30.959925160 1350.0
30.981658040 1278.0
31.003390920 1238.0
31.025123800 1272.0
31.046856680 1296.0
31.068589560 1335.0
31.090322440 1319.0
31.112055320 1328.0
31.133788200 1545.0
31.155521080 1545.0
31.177253960 1585.0
31.198986840 1747.0
31.220719720 1892.0
31.242452600 2065.0
31.264185480 2265.0
31.285918360 2458.0
31.307651240 2600.0
31.329384120 2774.0
31.351117000 2955.0
31.372849880 3201.0
31.394582760 3484.0
31.416315640 3747.0
31.438048520 3839.0
31.459781400 4237.0
31.481514280 4805.0
31.503247160 5647.0
31.524980040 6945.0
31.546712920 9287.0
31.568445800 12442.0
31.590178680 17165.0
31.611911560 24700.0
31.633644440 35880.0
31.655377320 55111.0
31.677110200 86298.0
31.698843080 126979.0
31.720575960 165308.0
31.742308840 171827.0
31.764041720 142496.0
31.785774600 113664.0
31.807507480 98782.0
31.829240360 79427.0
31.850973240 50217.0
31.872706120 26662.0
31.894439000 14211.0
31.916171880 9239.0
31.937904760 6885.0
31.959637640 5646.0
31.981370520 5002.0
32.003103400 4370.0
32.024836280 4072.0
32.046569160 3684.0
32.068302040 3107.0
32.090034920 2764.0
32.111767800 2426.0
32.133500680 2101.0
32.155233560 1938.0
32.176966440 1767.0
32.198699320 1680.0
32.220432200 1478.0
32.242165080 1429.0
32.263897960 1352.0
32.285630840 1431.0
32.307363720 1354.0
32.329096600 1219.0
32.350829480 1269.0
32.372562360 1214.0
32.394295240 1234.0
32.416028120 1191.0
32.437761000 1170.0
32.459493880 1179.0
32.481226760 1172.0
32.502959640 1138.0
32.524692520 1128.0
32.546425400 1131.0
32.568158280 1128.0
32.589891160 1106.0
32.611624040 1111.0
32.633356920 1080.0
32.655089800 1133.0
32.676822680 1103.0
32.698555560 1037.0
32.720288440 1029.0
32.742021320 1014.0
32.763754200 978.0
32.785487080 1046.0
32.807219960 1039.0
32.828952840 997.0
32.850685720 999.0
32.872418600 976.0
32.894151480 995.0
32.915884360 965.0
32.937617240 967.0
32.959350120 952.0
32.981083000 991.0
33.002815880 912.0
33.024548760 895.0
33.046281640 946.0
33.068014520 969.0
33.089747400 895.0
33.111480280 899.0
33.133213160 897.0
33.154946040 911.0
33.176678920 851.0
33.198411800 837.0
33.220144680 942.0
33.241877560 833.0
33.263610440 904.0
33.285343320 903.0
33.307076200 809.0
33.328809080 843.0
33.350541960 839.0
33.372274840 842.0
33.394007720 794.0
33.415740600 849.0
33.437473480 863.0
33.459206360 804.0
33.480939240 847.0
33.502672120 810.0
33.524405000 850.0
33.546137880 846.0
33.567870760 882.0
33.589603640 795.0
33.611336520 808.0
33.633069400 827.0
33.654802280 801.0
33.676535160 801.0
33.698268040 799.0
33.720000920 791.0
33.741733800 731.0
33.763466680 761.0
33.785199560 703.0
33.806932440 790.0
33.828665320 748.0
33.850398200 772.0
33.872131080 784.0
33.893863960 776.0
33.915596840 749.0
33.937329720 721.0
33.959062600 744.0
33.980795480 760.0
34.002528360 820.0
34.024261240 745.0
34.045994120 780.0
34.067727000 762.0
34.089459880 762.0
34.111192760 737.0
34.132925640 711.0
34.154658520 790.0
34.176391400 727.0
34.198124280 785.0
34.219857160 760.0
34.241590040 733.0
34.263322920 776.0
34.285055800 690.0
34.306788680 696.0
34.328521560 756.0
34.350254440 730.0
34.371987320 676.0
34.393720200 741.0
34.415453080 697.0
34.437185960 762.0
34.458918840 701.0
34.480651720 748.0
34.502384600 727.0
34.524117480 729.0
34.545850360 740.0
34.567583240 763.0
34.589316120 695.0
34.611049000 769.0
34.632781880 762.0
34.654514760 667.0
34.676247640 729.0
34.697980520 718.0
34.719713400 694.0
34.741446280 681.0
34.763179160 747.0
34.784912040 720.0
34.806644920 690.0
34.828377800 738.0
34.850110680 738.0
34.871843560 724.0
34.893576440 677.0
34.915309320 709.0
34.937042200 689.0
34.958775080 681.0
34.980507960 670.0
35.002240840 687.0
35.023973720 670.0
35.045706600 693.0
35.067439480 680.0
35.089172360 670.0
35.110905240 629.0
35.132638120 674.0
35.154371000 664.0
35.176103880 653.0
35.197836760 679.0
35.219569640 655.0
35.241302520 653.0
35.263035400 684.0
35.284768280 640.0
35.306501160 656.0
35.328234040 678.0
35.349966920 621.0
35.371699800 693.0
35.393432680 629.0
35.415165560 664.0
35.436898440 644.0
35.458631320 661.0
35.480364200 672.0
35.502097080 640.0
35.523829960 653.0
35.545562840 700.0
35.567295720 601.0
35.589028600 615.0
35.610761480 638.0
35.632494360 599.0
35.654227240 604.0
35.675960120 603.0
35.697693000 581.0
35.719425880 611.0
35.741158760 554.0
35.762891640 599.0
35.784624520 598.0
35.806357400 630.0
35.828090280 598.0
35.849823160 629.0
35.871556040 584.0
35.893288920 610.0
35.915021800 576.0
35.936754680 572.0
35.958487560 619.0
35.980220440 606.0
36.001953320 618.0
36.023686200 557.0
36.045419080 544.0
36.067151960 626.0
36.088884840 568.0
36.110617720 575.0
36.132350600 574.0
36.154083480 622.0
36.175816360 611.0
36.197549240 576.0
36.219282120 634.0
36.241015000 630.0
36.262747880 633.0
36.284480760 648.0
36.306213640 679.0
36.327946520 672.0
36.349679400 655.0
36.371412280 631.0
36.393145160 612.0
36.414878040 616.0
36.436610920 630.0
36.458343800 596.0
36.480076680 593.0
36.501809560 561.0
36.523542440 556.0
36.545275320 549.0
36.567008200 597.0
36.588741080 546.0
36.610473960 578.0
36.632206840 584.0
36.653939720 511.0
36.675672600 571.0
36.697405480 531.0
36.719138360 553.0
36.740871240 558.0
36.762604120 548.0
36.784337000 536.0
36.806069880 533.0
36.827802760 573.0
36.849535640 567.0
36.871268520 568.0
36.893001400 525.0
36.914734280 595.0
36.936467160 560.0
36.958200040 527.0
36.979932920 575.0
37.001665800 560.0
37.023398680 542.0
37.045131560 536.0
37.066864440 525.0
37.088597320 522.0
37.110330200 535.0
37.132063080 551.0
37.153795960 607.0
37.175528840 499.0
37.197261720 543.0
37.218994600 543.0
37.240727480 543.0
37.262460360 565.0
37.284193240 591.0
37.305926120 521.0
37.327659000 493.0
37.349391880 522.0
37.371124760 546.0
37.392857640 508.0
37.414590520 552.0
37.436323400 520.0
37.458056280 546.0
37.479789160 545.0
37.501522040 503.0
37.523254920 495.0
37.544987800 517.0
37.566720680 544.0
37.588453560 550.0
37.610186440 532.0
37.631919320 505.0
37.653652200 522.0
37.675385080 523.0
37.697117960 508.0
37.718850840 487.0
37.740583720 464.0
37.762316600 494.0
37.784049480 490.0
37.805782360 514.0
37.827515240 470.0
37.849248120 490.0
37.870981000 569.0
37.892713880 517.0
37.914446760 508.0
37.936179640 479.0
37.957912520 497.0
37.979645400 516.0
38.001378280 461.0
38.023111160 504.0
38.044844040 448.0
38.066576920 474.0
38.088309800 501.0
38.110042680 508.0
38.131775560 477.0
38.153508440 529.0
38.175241320 454.0
38.196974200 505.0
38.218707080 491.0
38.240439960 463.0
38.262172840 469.0
38.283905720 493.0
38.305638600 474.0
38.327371480 465.0
38.349104360 495.0
38.370837240 509.0
38.392570120 499.0
38.414303000 442.0
38.436035880 477.0
38.457768760 471.0
38.479501640 481.0
38.501234520 522.0
38.522967400 560.0
38.544700280 482.0
38.566433160 544.0
38.588166040 468.0
38.609898920 513.0
38.631631800 596.0
38.653364680 660.0
38.675097560 761.0
38.696830440 758.0
38.718563320 636.0
38.740296200 608.0
38.762029080 574.0
38.783761960 617.0
38.805494840 540.0
38.827227720 482.0
38.848960600 480.0
38.870693480 501.0
38.892426360 470.0
38.914159240 500.0
38.935892120 438.0
38.957625000 463.0
38.979357880 463.0
39.001090760 472.0
39.022823640 446.0
39.044556520 469.0
39.066289400 494.0
39.088022280 429.0
39.109755160 456.0
39.131488040 424.0
39.153220920 452.0
39.174953800 464.0
39.196686680 488.0
39.218419560 435.0
39.240152440 458.0
39.261885320 420.0
39.283618200 447.0
39.305351080 418.0
39.327083960 417.0
39.348816840 447.0
39.370549720 441.0
39.392282600 442.0
39.414015480 459.0
39.435748360 440.0
39.457481240 428.0
39.479214120 455.0
39.500947000 449.0
39.522679880 469.0
39.544412760 472.0
39.566145640 440.0
39.587878520 457.0
39.609611400 383.0
39.631344280 448.0
39.653077160 438.0
39.674810040 457.0
39.696542920 476.0
39.718275800 434.0
39.740008680 479.0
39.761741560 436.0
39.783474440 452.0
39.805207320 441.0
39.826940200 406.0
39.848673080 424.0
39.870405960 422.0
39.892138840 445.0
39.913871720 423.0
39.935604600 443.0
39.957337480 425.0
39.979070360 442.0
40.000803240 382.0
40.022536120 435.0
40.044269000 418.0
40.066001880 432.0
40.087734760 425.0
40.109467640 445.0
40.131200520 440.0
40.152933400 425.0
40.174666280 461.0
40.196399160 447.0
40.218132040 440.0
40.239864920 427.0
40.261597800 408.0
40.283330680 384.0
40.305063560 435.0
40.326796440 402.0
40.348529320 430.0
40.370262200 419.0
40.391995080 412.0
40.413727960 444.0
40.435460840 384.0
40.457193720 393.0
40.478926600 434.0
40.500659480 396.0
40.522392360 399.0
40.544125240 418.0
40.565858120 425.0
40.587591000 417.0
40.609323880 404.0
40.631056760 429.0
40.652789640 407.0
40.674522520 415.0
40.696255400 418.0
40.717988280 423.0
40.739721160 431.0
40.761454040 476.0
40.783186920 550.0
40.804919800 574.0
40.826652680 667.0
40.848385560 716.0
40.870118440 687.0
40.891851320 572.0
40.913584200 601.0
40.935317080 603.0
40.957049960 588.0
40.978782840 526.0
41.000515720 479.0
41.022248600 420.0
41.043981480 457.0
41.065714360 428.0
41.087447240 403.0
41.109180120 379.0
41.130913000 358.0
41.152645880 437.0
41.174378760 426.0
41.196111640 405.0
41.217844520 431.0
41.239577400 446.0
41.261310280 420.0
41.283043160 416.0
41.304776040 473.0
41.326508920 513.0
41.348241800 515.0
41.369974680 520.0
41.391707560 470.0
41.413440440 431.0
41.435173320 432.0
41.456906200 465.0
41.478639080 411.0
41.500371960 399.0
41.522104840 405.0
41.543837720 404.0
41.565570600 416.0
41.587303480 400.0
41.609036360 365.0
41.630769240 394.0
41.652502120 396.0
41.674235000 417.0
41.695967880 435.0
41.717700760 420.0
41.739433640 404.0
41.761166520 412.0
41.782899400 392.0
41.804632280 415.0
41.826365160 424.0
41.848098040 394.0
41.869830920 400.0
41.891563800 376.0
41.913296680 404.0
41.935029560 398.0
41.956762440 365.0
41.978495320 402.0
42.000228200 377.0
42.021961080 364.0
42.043693960 398.0
42.065426840 409.0
42.087159720 376.0
42.108892600 403.0
42.130625480 408.0
42.152358360 361.0
42.174091240 371.0
42.195824120 380.0
42.217557000 381.0
42.239289880 349.0
42.261022760 374.0
42.282755640 350.0
42.304488520 378.0
42.326221400 375.0
42.347954280 396.0
42.369687160 390.0
42.391420040 381.0
42.413152920 387.0
42.434885800 394.0
42.456618680 404.0
42.478351560 398.0
42.500084440 389.0
42.521817320 375.0
42.543550200 364.0
42.565283080 386.0
42.587015960 387.0
42.608748840 387.0
42.630481720 379.0
42.652214600 405.0
42.673947480 369.0
42.695680360 382.0
42.717413240 377.0
42.739146120 395.0
42.760879000 386.0
42.782611880 337.0
42.804344760 420.0
42.826077640 392.0
42.847810520 402.0
42.869543400 382.0
42.891276280 463.0
42.913009160 422.0
42.934742040 479.0
42.956474920 460.0
42.978207800 457.0
42.999940680 426.0
43.021673560 431.0
43.043406440 420.0
43.065139320 387.0
43.086872200 422.0
43.108605080 378.0
43.130337960 356.0
43.152070840 371.0
43.173803720 362.0
43.195536600 375.0
43.217269480 363.0
43.239002360 428.0
43.260735240 374.0
43.282468120 408.0
43.304201000 410.0
43.325933880 421.0
43.347666760 464.0
43.369399640 494.0
43.391132520 475.0
43.412865400 423.0
43.434598280 436.0
43.456331160 487.0
43.478064040 418.0
43.499796920 419.0
43.521529800 422.0
43.543262680 423.0
43.564995560 365.0
43.586728440 375.0
43.608461320 368.0
43.630194200 364.0
43.651927080 356.0
43.673659960 345.0
43.695392840 401.0
43.717125720 378.0
43.738858600 367.0
43.760591480 421.0
43.782324360 396.0
43.804057240 390.0
43.825790120 408.0
43.847523000 452.0
43.869255880 446.0
43.890988760 436.0
43.912721640 450.0
43.934454520 392.0
43.956187400 441.0
43.977920280 445.0
43.999653160 433.0
44.021386040 464.0
44.043118920 426.0
44.064851800 475.0
44.086584680 418.0
44.108317560 455.0
44.130050440 464.0
44.151783320 450.0
44.173516200 451.0
44.195249080 451.0
44.216981960 476.0
44.238714840 436.0
44.260447720 396.0
44.282180600 428.0
44.303913480 428.0
44.325646360 393.0
44.347379240 469.0
44.369112120 455.0
44.390845000 448.0
44.412577880 462.0
44.434310760 452.0
44.456043640 457.0
44.477776520 440.0
44.499509400 469.0
44.521242280 461.0
44.542975160 429.0
44.564708040 472.0
44.586440920 477.0
44.608173800 452.0
44.629906680 491.0
44.651639560 439.0
44.673372440 434.0
44.695105320 419.0
44.716838200 470.0
44.738571080 459.0
44.760303960 499.0
44.782036840 435.0
44.803769720 454.0
44.825502600 510.0
44.847235480 511.0
44.868968360 510.0
44.890701240 482.0
44.912434120 491.0
44.934167000 531.0
44.955899880 556.0
44.977632760 649.0
44.999365640 638.0
45.021098520 643.0
45.042831400 658.0
45.064564280 781.0
45.086297160 801.0
45.108030040 844.0
45.129762920 864.0
45.151495800 944.0
45.173228680 1002.0
45.194961560 1118.0
45.216694440 1279.0
45.238427320 1475.0
45.260160200 1616.0
45.281893080 1987.0
45.303625960 2553.0
45.325358840 3239.0
45.347091720 4735.0
45.368824600 6919.0
45.390557480 9949.0
45.412290360 14118.0
45.434023240 18749.0
45.455756120 22107.0
45.477489000 21949.0
45.499221880 18769.0
45.520954760 15667.0
45.542687640 14106.0
45.564420520 13687.0
45.586153400 12741.0
45.607886280 10921.0
45.629619160 7722.0
45.651352040 5429.0
45.673084920 3704.0
45.694817800 2779.0
45.716550680 2076.0
45.738283560 1666.0
45.760016440 1417.0
45.781749320 1209.0
45.803482200 1088.0
45.825215080 916.0
45.846947960 819.0
45.868680840 759.0
45.890413720 720.0
45.912146600 646.0
45.933879480 616.0
45.955612360 617.0
45.977345240 574.0
45.999078120 476.0
46.020811000 503.0
46.042543880 456.0
46.064276760 453.0
46.086009640 516.0
46.107742520 455.0
46.129475400 462.0
46.151208280 441.0
46.172941160 434.0
46.194674040 449.0
46.216406920 465.0
46.238139800 431.0
46.259872680 408.0
46.281605560 410.0
46.303338440 428.0
46.325071320 425.0
46.346804200 442.0
46.368537080 429.0
46.390269960 452.0
46.412002840 391.0
46.433735720 390.0
46.455468600 416.0
46.477201480 412.0
46.498934360 420.0
46.520667240 414.0
46.542400120 434.0
46.564133000 396.0
46.585865880 414.0
46.607598760 409.0
46.629331640 407.0
46.651064520 409.0
46.672797400 383.0
46.694530280 395.0
46.716263160 395.0
46.737996040 382.0
46.759728920 422.0
46.781461800 343.0
46.803194680 393.0
46.824927560 416.0
46.846660440 426.0
46.868393320 402.0
46.890126200 395.0
46.911859080 374.0
46.933591960 417.0
46.955324840 415.0
46.977057720 365.0
46.998790600 375.0
47.020523480 380.0
47.042256360 353.0
47.063989240 358.0
47.085722120 382.0
47.107455000 365.0
47.129187880 323.0
47.150920760 384.0
47.172653640 341.0
47.194386520 357.0
47.216119400 344.0
47.237852280 390.0
47.259585160 392.0
47.281318040 384.0
47.303050920 332.0
47.324783800 371.0
47.346516680 348.0
47.368249560 369.0
47.389982440 357.0
47.411715320 336.0
47.433448200 331.0
47.455181080 374.0
47.476913960 356.0
47.498646840 350.0
47.520379720 351.0
47.542112600 346.0
47.563845480 367.0
47.585578360 373.0
47.607311240 365.0
47.629044120 392.0
47.650777000 313.0
47.672509880 342.0
47.694242760 393.0
47.715975640 377.0
47.737708520 366.0
47.759441400 344.0
47.781174280 371.0
47.802907160 340.0
47.824640040 370.0
47.846372920 336.0
47.868105800 352.0
47.889838680 332.0
47.911571560 368.0
47.933304440 360.0
47.955037320 353.0
47.976770200 329.0
47.998503080 342.0
48.020235960 309.0
48.041968840 363.0
48.063701720 373.0
48.085434600 322.0
48.107167480 296.0
48.128900360 314.0
48.150633240 296.0
48.172366120 359.0
48.194099000 359.0
48.215831880 355.0
48.237564760 321.0
48.259297640 363.0
48.281030520 375.0
48.302763400 332.0
48.324496280 343.0
48.346229160 352.0
48.367962040 360.0
48.389694920 306.0
48.411427800 339.0
48.433160680 333.0
48.454893560 357.0
48.476626440 340.0
48.498359320 341.0
48.520092200 328.0
48.541825080 319.0
48.563557960 367.0
48.585290840 306.0
48.607023720 316.0
48.628756600 376.0
48.650489480 401.0
48.672222360 413.0
48.693955240 488.0
48.715688120 539.0
48.737421000 480.0
48.759153880 436.0
48.780886760 378.0
48.802619640 396.0
48.824352520 396.0
48.846085400 437.0
48.867818280 419.0
48.889551160 390.0
48.911284040 360.0
48.933016920 341.0
48.954749800 379.0
48.976482680 344.0
48.998215560 339.0
49.019948440 330.0
49.041681320 324.0
49.063414200 335.0
49.085147080 339.0
49.106879960 356.0
49.128612840 330.0
49.150345720 358.0
49.172078600 349.0
49.193811480 343.0
49.215544360 353.0
49.237277240 340.0
49.259010120 337.0
49.280743000 337.0
49.302475880 331.0
49.324208760 337.0
49.345941640 310.0
49.367674520 326.0
49.389407400 303.0
49.411140280 333.0
49.432873160 349.0
49.454606040 328.0
49.476338920 317.0
49.498071800 313.0
49.519804680 337.0
49.541537560 306.0
49.563270440 332.0
49.585003320 307.0
49.606736200 316.0
49.628469080 340.0
49.650201960 299.0
49.671934840 313.0
49.693667720 292.0
49.715400600 332.0
49.737133480 295.0
49.758866360 284.0
49.780599240 314.0
49.802332120 311.0
49.824065000 290.0
49.845797880 306.0
49.867530760 301.0
49.889263640 319.0
49.910996520 315.0
49.932729400 318.0
49.954462280 294.0
49.976195160 288.0
49.997928040 334.0
50.019660920 337.0
50.041393800 312.0
50.063126680 327.0
50.084859560 316.0
50.106592440 323.0
50.128325320 321.0
50.150058200 355.0
50.171791080 306.0
50.193523960 292.0
50.215256840 313.0
50.236989720 306.0
50.258722600 331.0
50.280455480 329.0
50.302188360 311.0
50.323921240 306.0
50.345654120 272.0
50.367387000 272.0
50.389119880 327.0
50.410852760 323.0
50.432585640 293.0
50.454318520 299.0
50.476051400 308.0
50.497784280 304.0
50.519517160 327.0
50.541250040 311.0
50.562982920 330.0
50.584715800 314.0
50.606448680 321.0
50.628181560 297.0
50.649914440 302.0
50.671647320 331.0
50.693380200 334.0
50.715113080 291.0
50.736845960 315.0
50.758578840 286.0
50.780311720 317.0
50.802044600 322.0
50.823777480 290.0
50.845510360 307.0
50.867243240 281.0
50.888976120 305.0
50.910709000 232.0
50.932441880 262.0
50.954174760 281.0
50.975907640 300.0
50.997640520 298.0
51.019373400 281.0
51.041106280 287.0
51.062839160 307.0
51.084572040 308.0
51.106304920 302.0
51.128037800 290.0
51.149770680 298.0
51.171503560 261.0
51.193236440 280.0
51.214969320 288.0
51.236702200 282.0
51.258435080 282.0
51.280167960 283.0
51.301900840 298.0
51.323633720 298.0
51.345366600 304.0
51.367099480 304.0
51.388832360 298.0
51.410565240 301.0
51.432298120 280.0
51.454031000 301.0
51.475763880 286.0
51.497496760 280.0
51.519229640 243.0
51.540962520 293.0
51.562695400 301.0
51.584428280 287.0
51.606161160 289.0
51.627894040 275.0
51.649626920 288.0
51.671359800 300.0
51.693092680 296.0
51.714825560 294.0
51.736558440 281.0
51.758291320 305.0
51.780024200 265.0
51.801757080 272.0
51.823489960 267.0
51.845222840 269.0
51.866955720 250.0
51.888688600 296.0
51.910421480 239.0
51.932154360 282.0
51.953887240 295.0
51.975620120 280.0
51.997353000 297.0
52.019085880 309.0
52.040818760 325.0
52.062551640 307.0
52.084284520 279.0
52.106017400 319.0
52.127750280 321.0
52.149483160 302.0
52.171216040 313.0
52.192948920 287.0
52.214681800 308.0
52.236414680 357.0
52.258147560 380.0
52.279880440 386.0
52.301613320 360.0
52.323346200 353.0
52.345079080 362.0
52.366811960 385.0
52.388544840 355.0
52.410277720 341.0
52.432010600 288.0
52.453743480 331.0
52.475476360 318.0
52.497209240 326.0
52.518942120 294.0
52.540675000 268.0
52.562407880 290.0
52.584140760 280.0
52.605873640 297.0
52.627606520 297.0
52.649339400 272.0
52.671072280 288.0
52.692805160 285.0
52.714538040 289.0
52.736270920 295.0
52.758003800 269.0
52.779736680 286.0
52.801469560 229.0
52.823202440 285.0
52.844935320 243.0
52.866668200 267.0
52.888401080 336.0
52.910133960 281.0
52.931866840 280.0
52.953599720 264.0
52.975332600 277.0
52.997065480 234.0
53.018798360 301.0
53.040531240 245.0
53.062264120 243.0
53.083997000 291.0
53.105729880 286.0
53.127462760 290.0
53.149195640 245.0
53.170928520 276.0
53.192661400 281.0
53.214394280 263.0
53.236127160 279.0
53.257860040 258.0
53.279592920 258.0
53.301325800 258.0
53.323058680 265.0
53.344791560 288.0
53.366524440 278.0
53.388257320 271.0
53.409990200 296.0
53.431723080 307.0
53.453455960 309.0
53.475188840 264.0
53.496921720 277.0
53.518654600 310.0
53.540387480 285.0
53.562120360 285.0
53.583853240 312.0
53.605586120 304.0
53.627319000 284.0
53.649051880 305.0
53.670784760 314.0
53.692517640 342.0
53.714250520 357.0
53.735983400 377.0
53.757716280 401.0
53.779449160 492.0
53.801182040 635.0
53.822914920 788.0
53.844647800 980.0
53.866380680 1126.0
53.888113560 1122.0
53.909846440 1048.0
53.931579320 889.0
53.953312200 810.0
53.975045080 740.0
53.996777960 741.0
54.018510840 778.0
54.040243720 712.0
54.061976600 646.0
54.083709480 574.0
54.105442360 446.0
54.127175240 372.0
54.148908120 409.0
54.170641000 351.0
54.192373880 301.0
54.214106760 314.0
54.235839640 302.0
54.257572520 283.0
54.279305400 270.0
54.301038280 278.0
54.322771160 270.0
54.344504040 297.0
54.366236920 300.0
54.387969800 280.0
54.409702680 301.0
54.431435560 301.0
54.453168440 267.0
54.474901320 237.0
54.496634200 266.0
54.518367080 267.0
54.540099960 246.0
54.561832840 243.0
54.583565720 281.0
54.605298600 301.0
54.627031480 273.0
54.648764360 257.0
54.670497240 274.0
54.692230120 266.0
54.713963000 281.0
54.735695880 270.0
54.757428760 265.0
54.779161640 261.0
54.800894520 247.0
54.822627400 276.0
54.844360280 314.0
54.866093160 240.0
54.887826040 243.0
54.909558920 285.0
54.931291800 257.0
54.953024680 275.0
54.974757560 291.0
54.996490440 263.0
55.018223320 225.0
55.039956200 247.0
55.061689080 274.0
55.083421960 265.0
55.105154840 269.0
55.126887720 282.0
55.148620600 267.0
55.170353480 285.0
55.192086360 293.0
55.213819240 274.0
55.235552120 244.0
55.257285000 269.0
55.279017880 248.0
55.300750760 257.0
55.322483640 302.0
55.344216520 271.0
55.365949400 294.0
55.387682280 268.0
55.409415160 307.0
55.431148040 294.0
55.452880920 258.0
55.474613800 284.0
55.496346680 273.0
55.518079560 259.0
55.539812440 307.0
55.561545320 272.0
55.583278200 279.0
55.605011080 293.0
55.626743960 313.0
55.648476840 286.0
55.670209720 266.0
55.691942600 312.0
55.713675480 374.0
55.735408360 381.0
55.757141240 414.0
55.778874120 443.0
55.800607000 333.0
55.822339880 351.0
55.844072760 359.0
55.865805640 353.0
55.887538520 335.0
55.909271400 371.0
55.931004280 382.0
55.952737160 329.0
55.974470040 330.0
55.996202920 356.0
56.017935800 375.0
56.039668680 369.0
56.061401560 316.0
56.083134440 361.0
56.104867320 338.0
56.126600200 390.0
56.148333080 416.0
56.170065960 464.0
56.191798840 451.0
56.213531720 503.0
56.235264600 533.0
56.256997480 561.0
56.278730360 631.0
56.300463240 722.0
56.322196120 912.0
56.343929000 1102.0
56.365661880 1402.0
56.387394760 1900.0
56.409127640 2546.0
56.430860520 3445.0
56.452593400 4476.0
56.474326280 4858.0
56.496059160 5112.0
56.517792040 4593.0
56.539524920 3750.0
56.561257800 3233.0
56.582990680 2992.0
56.604723560 3121.0
56.626456440 3080.0
56.648189320 2926.0
56.669922200 2521.0
56.691655080 1949.0
56.713387960 1512.0
56.735120840 1101.0
56.756853720 908.0
56.778586600 687.0
56.800319480 600.0
56.822052360 571.0
56.843785240 523.0
56.865518120 469.0
56.887251000 424.0
56.908983880 375.0
56.930716760 412.0
56.952449640 364.0
56.974182520 300.0
56.995915400 330.0
57.017648280 343.0
57.039381160 343.0
57.061114040 299.0
57.082846920 266.0
57.104579800 263.0
57.126312680 267.0
57.148045560 280.0
57.169778440 286.0
57.191511320 295.0
57.213244200 276.0
57.234977080 272.0
57.256709960 280.0
57.278442840 294.0
57.300175720 280.0
57.321908600 260.0
57.343641480 221.0
57.365374360 262.0
57.387107240 268.0
57.408840120 248.0
57.430573000 292.0
57.452305880 236.0
57.474038760 236.0
57.495771640 242.0
57.517504520 243.0
57.539237400 229.0
57.560970280 244.0
57.582703160 234.0
57.604436040 241.0
57.626168920 245.0
57.647901800 219.0
57.669634680 242.0
57.691367560 226.0
57.713100440 268.0
57.734833320 256.0
57.756566200 246.0
57.778299080 250.0
57.800031960 270.0
57.821764840 264.0
57.843497720 269.0
57.865230600 277.0
57.886963480 265.0
57.908696360 248.0
57.930429240 248.0
57.952162120 230.0
57.973895000 246.0
57.995627880 286.0
58.017360760 222.0
58.039093640 242.0
58.060826520 228.0
58.082559400 271.0
58.104292280 231.0
58.126025160 273.0
58.147758040 236.0
58.169490920 218.0
58.191223800 247.0
58.212956680 240.0
58.234689560 237.0
58.256422440 217.0
58.278155320 238.0
58.299888200 223.0
58.321621080 241.0
58.343353960 245.0
58.365086840 214.0
58.386819720 247.0
58.408552600 231.0
58.430285480 194.0
58.452018360 232.0
58.473751240 230.0
58.495484120 216.0
58.517217000 237.0
58.538949880 213.0
58.560682760 227.0
58.582415640 221.0
58.604148520 246.0
58.625881400 225.0
58.647614280 216.0
58.669347160 228.0
58.691080040 244.0
58.712812920 235.0
58.734545800 246.0
58.756278680 224.0
58.778011560 210.0
58.799744440 243.0
58.821477320 232.0
58.843210200 233.0
58.864943080 227.0
58.886675960 222.0
58.908408840 228.0
58.930141720 236.0
58.951874600 256.0
58.973607480 287.0
58.995340360 310.0
59.017073240 272.0
59.038806120 296.0
59.060539000 282.0
59.082271880 248.0
59.104004760 261.0
59.125737640 249.0
59.147470520 275.0
59.169203400 300.0
59.190936280 260.0
59.212669160 267.0
59.234402040 302.0
59.256134920 279.0
59.277867800 271.0
59.299600680 205.0
59.321333560 239.0
59.343066440 222.0
59.364799320 223.0
59.386532200 227.0
59.408265080 229.0
59.429997960 193.0
59.451730840 203.0
59.473463720 227.0
59.495196600 224.0
59.516929480 203.0
59.538662360 235.0
59.560395240 221.0
59.582128120 202.0
59.603861000 224.0
59.625593880 203.0
59.647326760 234.0
59.669059640 227.0
59.690792520 228.0
59.712525400 242.0
59.734258280 216.0
59.755991160 241.0
59.777724040 205.0
59.799456920 209.0
59.821189800 215.0
59.842922680 208.0
59.864655560 240.0
59.886388440 228.0
59.908121320 209.0
59.929854200 224.0
59.951587080 210.0
59.973319960 212.0
59.995052840 263.0
60.016785720 204.0
60.038518600 221.0
60.060251480 210.0
60.081984360 196.0
60.103717240 199.0
60.125450120 222.0
60.147183000 213.0
60.168915880 197.0
60.190648760 240.0
60.212381640 199.0
60.234114520 194.0
60.255847400 222.0
60.277580280 213.0
60.299313160 237.0
60.321046040 233.0
60.342778920 213.0
60.364511800 228.0
60.386244680 195.0
60.407977560 256.0
60.429710440 205.0
60.451443320 213.0
60.473176200 198.0
60.494909080 243.0
60.516641960 244.0
60.538374840 207.0
60.560107720 216.0
60.581840600 194.0
60.603573480 226.0
60.625306360 209.0
60.647039240 219.0
60.668772120 227.0
60.690505000 219.0
60.712237880 246.0
60.733970760 241.0
60.755703640 219.0
60.777436520 209.0
60.799169400 229.0
60.820902280 240.0
60.842635160 226.0
60.864368040 211.0
60.886100920 209.0
60.907833800 246.0
60.929566680 245.0
60.951299560 209.0
60.973032440 190.0
60.994765320 211.0
61.016498200 180.0
61.038231080 202.0
61.059963960 224.0
61.081696840 211.0
61.103429720 202.0
61.125162600 227.0
61.146895480 242.0
61.168628360 217.0
61.190361240 184.0
61.212094120 191.0
61.233827000 203.0
61.255559880 192.0
61.277292760 219.0
61.299025640 229.0
61.320758520 198.0
61.342491400 184.0
61.364224280 228.0
61.385957160 221.0
61.407690040 235.0
61.429422920 193.0
61.451155800 208.0
61.472888680 196.0
61.494621560 200.0
61.516354440 212.0
61.538087320 228.0
61.559820200 208.0
61.581553080 188.0
61.603285960 189.0
61.625018840 208.0
61.646751720 224.0
61.668484600 236.0
61.690217480 208.0
61.711950360 228.0
61.733683240 215.0
61.755416120 198.0
61.777149000 229.0
61.798881880 209.0
61.820614760 195.0
61.842347640 177.0
61.864080520 229.0
61.885813400 230.0
61.907546280 228.0
61.929279160 211.0
61.951012040 231.0
61.972744920 224.0
61.994477800 204.0
62.016210680 238.0
62.037943560 188.0
62.059676440 202.0
62.081409320 188.0
62.103142200 204.0
62.124875080 208.0
62.146607960 237.0
62.168340840 230.0
62.190073720 248.0
62.211806600 220.0
62.233539480 236.0
62.255272360 267.0
62.277005240 260.0
62.298738120 303.0
62.320471000 278.0
62.342203880 302.0
62.363936760 231.0
62.385669640 206.0
62.407402520 271.0
62.429135400 244.0
62.450868280 273.0
62.472601160 269.0
62.494334040 229.0
62.516066920 268.0
62.537799800 243.0
62.559532680 232.0
62.581265560 233.0
62.602998440 239.0
62.624731320 198.0
62.646464200 185.0
62.668197080 213.0
62.689929960 215.0
62.711662840 210.0
62.733395720 224.0
62.755128600 189.0
62.776861480 184.0
62.798594360 202.0
62.820327240 219.0
62.842060120 201.0
62.863793000 210.0
62.885525880 203.0
62.907258760 200.0
62.928991640 202.0
62.950724520 196.0
62.972457400 219.0
62.994190280 216.0
63.015923160 228.0
63.037656040 221.0
63.059388920 228.0
63.081121800 211.0
63.102854680 190.0
63.124587560 207.0
63.146320440 188.0
63.168053320 213.0
63.189786200 198.0
63.211519080 213.0
63.233251960 209.0
63.254984840 204.0
63.276717720 186.0
63.298450600 199.0
63.320183480 212.0
63.341916360 193.0
63.363649240 180.0
63.385382120 196.0
63.407115000 210.0
63.428847880 197.0
63.450580760 214.0
63.472313640 232.0
63.494046520 211.0
63.515779400 224.0
63.537512280 200.0
63.559245160 217.0
63.580978040 214.0
63.602710920 193.0
63.624443800 210.0
63.646176680 211.0
63.667909560 218.0
63.689642440 216.0
63.711375320 225.0
63.733108200 219.0
63.754841080 198.0
63.776573960 271.0
63.798306840 236.0
63.820039720 225.0
63.841772600 202.0
63.863505480 198.0
63.885238360 211.0
63.906971240 217.0
63.928704120 240.0
63.950437000 221.0
63.972169880 238.0
63.993902760 212.0
64.015635640 227.0
64.037368520 208.0
64.059101400 223.0
64.080834280 217.0
64.102567160 199.0
64.124300040 235.0
64.146032920 229.0
64.167765800 237.0
64.189498680 211.0
64.211231560 220.0
64.232964440 211.0
64.254697320 225.0
64.276430200 240.0
64.298163080 209.0
64.319895960 216.0
64.341628840 229.0
64.363361720 212.0
64.385094600 209.0
64.406827480 216.0
64.428560360 230.0
64.450293240 211.0
64.472026120 233.0
64.493759000 207.0
64.515491880 218.0
64.537224760 223.0
64.558957640 209.0
64.580690520 188.0
64.602423400 200.0
64.624156280 208.0
64.645889160 243.0
64.667622040 239.0
64.689354920 226.0
64.711087800 226.0
64.732820680 236.0
64.754553560 238.0
64.776286440 227.0
64.798019320 216.0
64.819752200 242.0
64.841485080 240.0
64.863217960 236.0
64.884950840 257.0
64.906683720 236.0
64.928416600 227.0
64.950149480 198.0
64.971882360 242.0
64.993615240 237.0
65.015348120 231.0
65.037081000 257.0
65.058813880 231.0
65.080546760 228.0
65.102279640 240.0
65.124012520 234.0
65.145745400 241.0
65.167478280 256.0
65.189211160 244.0
65.210944040 228.0
65.232676920 267.0
65.254409800 240.0
65.276142680 221.0
65.297875560 246.0
65.319608440 256.0
65.341341320 276.0
65.363074200 222.0
65.384807080 242.0
65.406539960 270.0
65.428272840 266.0
65.450005720 269.0
65.471738600 250.0
65.493471480 256.0
65.515204360 319.0
65.536937240 244.0
65.558670120 280.0
65.580403000 277.0
65.602135880 271.0
65.623868760 294.0
65.645601640 283.0
65.667334520 294.0
65.689067400 316.0
65.710800280 286.0
65.732533160 292.0
65.754266040 370.0
65.775998920 347.0
65.797731800 365.0
65.819464680 392.0
65.841197560 376.0
65.862930440 425.0
65.884663320 451.0
65.906396200 466.0
65.928129080 450.0
65.949861960 496.0
65.971594840 507.0
65.993327720 504.0
66.015060600 588.0
66.036793480 710.0
66.058526360 795.0
66.080259240 920.0
66.101992120 1157.0
66.123725000 1526.0
66.145457880 2184.0
66.167190760 3140.0
66.188923640 4484.0
66.210656520 5895.0
66.232389400 7028.0
66.254122280 7121.0
66.275855160 5889.0
66.297588040 4314.0
66.319320920 3235.0
66.341053800 2846.0
66.362786680 2866.0
66.384519560 3252.0
66.406252440 3832.0
66.427985320 3946.0
66.449718200 3650.0
66.471451080 2793.0
66.493183960 2009.0
66.514916840 1413.0
66.536649720 1045.0
66.558382600 849.0
66.580115480 693.0
66.601848360 610.0
66.623581240 551.0
66.645314120 499.0
66.667047000 421.0
66.688779880 422.0
66.710512760 377.0
66.732245640 384.0
66.753978520 405.0
66.775711400 342.0
66.797444280 309.0
66.819177160 297.0
66.840910040 334.0
66.862642920 325.0
66.884375800 339.0
66.906108680 290.0
66.927841560 284.0
66.949574440 280.0
66.971307320 313.0
66.993040200 309.0
67.014773080 293.0
67.036505960 292.0
67.058238840 284.0
67.079971720 296.0
67.101704600 286.0
67.123437480 268.0
67.145170360 249.0
67.166903240 260.0
67.188636120 249.0
67.210369000 269.0
67.232101880 273.0
67.253834760 218.0
67.275567640 249.0
67.297300520 240.0
67.319033400 261.0
67.340766280 263.0
67.362499160 237.0
67.384232040 220.0
67.405964920 227.0
67.427697800 199.0
67.449430680 211.0
67.471163560 213.0
67.492896440 241.0
67.514629320 212.0
67.536362200 258.0
67.558095080 228.0
67.579827960 247.0
67.601560840 224.0
67.623293720 238.0
67.645026600 221.0
67.666759480 203.0
67.688492360 214.0
67.710225240 260.0
67.731958120 235.0
67.753691000 235.0
67.775423880 213.0
67.797156760 228.0
67.818889640 244.0
67.840622520 220.0
67.862355400 212.0
67.884088280 235.0
67.905821160 208.0
67.927554040 258.0
67.949286920 267.0
67.971019800 222.0
67.992752680 257.0
68.014485560 244.0
68.036218440 246.0
68.057951320 228.0
68.079684200 227.0
68.101417080 200.0
68.123149960 225.0
68.144882840 199.0
68.166615720 202.0
68.188348600 218.0
68.210081480 209.0
68.231814360 235.0
68.253547240 201.0
68.275280120 217.0
68.297013000 205.0
68.318745880 203.0
68.340478760 206.0
68.362211640 212.0
68.383944520 236.0
68.405677400 203.0
68.427410280 199.0
68.449143160 185.0
68.470876040 215.0
68.492608920 214.0
68.514341800 223.0
68.536074680 228.0
68.557807560 228.0
68.579540440 243.0
68.601273320 219.0
68.623006200 217.0
68.644739080 242.0
68.666471960 204.0
68.688204840 204.0
68.709937720 223.0
68.731670600 198.0
68.753403480 207.0
68.775136360 203.0
68.796869240 201.0
68.818602120 225.0
68.840335000 212.0
68.862067880 207.0
68.883800760 216.0
68.905533640 222.0
68.927266520 222.0
68.948999400 211.0
68.970732280 198.0
68.992465160 236.0
69.014198040 185.0
69.035930920 208.0
69.057663800 207.0
69.079396680 209.0
69.101129560 208.0
69.122862440 199.0
69.144595320 235.0
69.166328200 195.0
69.188061080 192.0
69.209793960 188.0
69.231526840 201.0
69.253259720 213.0
69.274992600 218.0
69.296725480 205.0
69.318458360 204.0
69.340191240 219.0
69.361924120 211.0
69.383657000 218.0
69.405389880 207.0
69.427122760 208.0
69.448855640 192.0
69.470588520 185.0
69.492321400 196.0
69.514054280 170.0
69.535787160 183.0
69.557520040 197.0
69.579252920 218.0
69.600985800 193.0
69.622718680 209.0
69.644451560 179.0
69.666184440 228.0
69.687917320 200.0
69.709650200 217.0
69.731383080 224.0
69.753115960 215.0
69.774848840 206.0
69.796581720 196.0
69.818314600 202.0
69.840047480 207.0
69.861780360 198.0
69.883513240 232.0
69.905246120 212.0
69.926979000 187.0
69.948711880 186.0
69.970444760 216.0
69.992177640 217.0
70.013910520 194.0
70.035643400 216.0
70.057376280 215.0
70.079109160 191.0
70.100842040 186.0
70.122574920 197.0
70.144307800 197.0
70.166040680 185.0
70.187773560 211.0
70.209506440 214.0
70.231239320 201.0
70.252972200 204.0
70.274705080 205.0
70.296437960 219.0
70.318170840 207.0
70.339903720 208.0
70.361636600 193.0
70.383369480 210.0
70.405102360 198.0
70.426835240 195.0
70.448568120 207.0
70.470301000 216.0
70.492033880 220.0
70.513766760 185.0
70.535499640 206.0
70.557232520 203.0
70.578965400 189.0
70.600698280 206.0
70.622431160 198.0
70.644164040 206.0
70.665896920 191.0
70.687629800 201.0
70.709362680 210.0
70.731095560 218.0
70.752828440 232.0
70.774561320 227.0
70.796294200 204.0
70.818027080 208.0
70.839759960 193.0
70.861492840 199.0
70.883225720 196.0
70.904958600 219.0
70.926691480 179.0
70.948424360 214.0
70.970157240 199.0
70.991890120 195.0
71.013623000 215.0
71.035355880 220.0
71.057088760 194.0
71.078821640 187.0
71.100554520 237.0
71.122287400 206.0
71.144020280 217.0
71.165753160 202.0
71.187486040 192.0
71.209218920 198.0
71.230951800 191.0
71.252684680 215.0
71.274417560 200.0
71.296150440 228.0
71.317883320 202.0
71.339616200 200.0
71.361349080 226.0
71.383081960 233.0
71.404814840 215.0
71.426547720 245.0
71.448280600 222.0
71.470013480 256.0
71.491746360 266.0
71.513479240 234.0
71.535212120 220.0
71.556945000 216.0
71.578677880 226.0
71.600410760 213.0
71.622143640 233.0
71.643876520 233.0
71.665609400 246.0
71.687342280 219.0
71.709075160 247.0
71.730808040 205.0
71.752540920 223.0
71.774273800 207.0
71.796006680 223.0
71.817739560 209.0
71.839472440 225.0
71.861205320 209.0
71.882938200 217.0
71.904671080 230.0
71.926403960 199.0
71.948136840 180.0
71.969869720 244.0
71.991602600 192.0
72.013335480 210.0
72.035068360 184.0
72.056801240 164.0
72.078534120 220.0
72.100267000 199.0
72.121999880 201.0
72.143732760 217.0
72.165465640 182.0
72.187198520 221.0
72.208931400 192.0
72.230664280 209.0
72.252397160 192.0
72.274130040 207.0
72.295862920 220.0
72.317595800 219.0
72.339328680 229.0
72.361061560 202.0
72.382794440 187.0
72.404527320 194.0
72.426260200 232.0
72.447993080 215.0
72.469725960 238.0
72.491458840 224.0
72.513191720 208.0
72.534924600 185.0
72.556657480 224.0
72.578390360 257.0
72.600123240 219.0
72.621856120 198.0
72.643589000 203.0
72.665321880 234.0
72.687054760 244.0
72.708787640 228.0
72.730520520 228.0
72.752253400 236.0
72.773986280 282.0
72.795719160 203.0
72.817452040 269.0
72.839184920 246.0
72.860917800 243.0
72.882650680 263.0
72.904383560 293.0
72.926116440 290.0
72.947849320 300.0
72.969582200 328.0
72.991315080 340.0
73.013047960 402.0
73.034780840 376.0
73.056513720 463.0
73.078246600 440.0
73.099979480 432.0
73.121712360 387.0
73.143445240 363.0
73.165178120 389.0
73.186911000 341.0
73.208643880 335.0
73.230376760 364.0
73.252109640 305.0
73.273842520 345.0
73.295575400 338.0
73.317308280 324.0
73.339041160 300.0
73.360774040 295.0
73.382506920 263.0
73.404239800 274.0
73.425972680 268.0
73.447705560 270.0
73.469438440 261.0
73.491171320 237.0
73.512904200 207.0
73.534637080 246.0
73.556369960 235.0
73.578102840 277.0
73.599835720 229.0
73.621568600 249.0
73.643301480 240.0
73.665034360 230.0
73.686767240 248.0
73.708500120 225.0
73.730233000 224.0
73.751965880 221.0
73.773698760 231.0
73.795431640 231.0
73.817164520 232.0
73.838897400 248.0
73.860630280 258.0
73.882363160 243.0
73.904096040 231.0
73.925828920 230.0
73.947561800 201.0
73.969294680 280.0
73.991027560 212.0
74.012760440 243.0
74.034493320 276.0
74.056226200 241.0
74.077959080 236.0
74.099691960 257.0
74.121424840 248.0
74.143157720 231.0
74.164890600 273.0
74.186623480 301.0
74.208356360 299.0
74.230089240 313.0
74.251822120 320.0
74.273555000 281.0
74.295287880 303.0
74.317020760 271.0
74.338753640 284.0
74.360486520 248.0
74.382219400 294.0
74.403952280 269.0
74.425685160 312.0
74.447418040 297.0
74.469150920 325.0
74.490883800 288.0
74.512616680 233.0
74.534349560 317.0
74.556082440 245.0
74.577815320 251.0
74.599548200 272.0
74.621281080 277.0
74.643013960 304.0
74.664746840 318.0
74.686479720 333.0
74.708212600 288.0
74.729945480 321.0
74.751678360 344.0
74.773411240 339.0
74.795144120 335.0
74.816877000 363.0
74.838609880 363.0
74.860342760 428.0
74.882075640 434.0
74.903808520 452.0
74.925541400 469.0
74.947274280 465.0
74.969007160 492.0
74.990740040 575.0
75.012472920 603.0
75.034205800 624.0
75.055938680 672.0
75.077671560 773.0
75.099404440 900.0
75.121137320 1059.0
75.142870200 1215.0
75.164603080 1656.0
75.186335960 2060.0
75.208068840 2882.0
75.229801720 3906.0
75.251534600 4765.0
75.273267480 6179.0
75.295000360 6492.0
75.316733240 6238.0
75.338466120 5169.0
75.360199000 4175.0
75.381931880 3108.0
75.403664760 2738.0
75.425397640 2671.0
75.447130520 2759.0
75.468863400 3075.0
75.490596280 3568.0
75.512329160 3672.0
75.534062040 3506.0
75.555794920 2934.0
75.577527800 2270.0
75.599260680 1813.0
75.620993560 1301.0
75.642726440 1152.0
75.664459320 938.0
75.686192200 802.0
75.707925080 668.0
75.729657960 581.0
75.751390840 540.0
75.773123720 531.0
75.794856600 412.0
75.816589480 438.0
75.838322360 413.0
75.860055240 399.0
75.881788120 350.0
75.903521000 324.0
75.925253880 302.0
75.946986760 313.0
75.968719640 281.0
75.990452520 309.0
76.012185400 262.0
76.033918280 289.0
76.055651160 301.0
76.077384040 248.0
76.099116920 262.0
76.120849800 272.0
76.142582680 233.0
76.164315560 261.0
76.186048440 257.0
76.207781320 246.0
76.229514200 265.0
76.251247080 241.0
76.272979960 231.0
76.294712840 232.0
76.316445720 283.0
76.338178600 244.0
76.359911480 250.0
76.381644360 264.0
76.403377240 235.0
76.425110120 202.0
76.446843000 248.0
76.468575880 238.0
76.490308760 227.0
76.512041640 228.0
76.533774520 225.0
76.555507400 218.0
76.577240280 211.0
76.598973160 232.0
76.620706040 225.0
76.642438920 233.0
76.664171800 244.0
76.685904680 235.0
76.707637560 238.0
76.729370440 239.0
76.751103320 208.0
76.772836200 208.0
76.794569080 219.0
76.816301960 219.0
76.838034840 207.0
76.859767720 218.0
76.881500600 219.0
76.903233480 231.0
76.924966360 212.0
76.946699240 207.0
76.968432120 223.0
76.990165000 233.0
77.011897880 236.0
77.033630760 224.0
77.055363640 224.0
77.077096520 217.0
77.098829400 226.0
77.120562280 228.0
77.142295160 218.0
77.164028040 231.0
77.185760920 216.0
77.207493800 203.0
77.229226680 272.0
77.250959560 228.0
77.272692440 240.0
77.294425320 228.0
77.316158200 204.0
77.337891080 204.0
77.359623960 227.0
77.381356840 220.0
77.403089720 201.0
77.424822600 212.0
77.446555480 216.0
77.468288360 224.0
77.490021240 199.0
77.511754120 211.0
77.533487000 229.0
77.555219880 198.0
77.576952760 242.0
77.598685640 193.0
77.620418520 210.0
77.642151400 207.0
77.663884280 192.0
77.685617160 216.0
77.707350040 216.0
77.729082920 217.0
77.750815800 220.0
77.772548680 210.0
77.794281560 200.0
77.816014440 199.0
77.837747320 186.0
77.859480200 185.0
77.881213080 230.0
77.902945960 189.0
77.924678840 207.0
77.946411720 195.0
77.968144600 217.0
77.989877480 210.0
78.011610360 205.0
78.033343240 210.0
78.055076120 229.0
78.076809000 197.0
78.098541880 203.0
78.120274760 194.0
78.142007640 208.0
78.163740520 220.0
78.185473400 195.0
78.207206280 183.0
78.228939160 210.0
78.250672040 192.0
78.272404920 188.0
78.294137800 213.0
78.315870680 208.0
78.337603560 172.0
78.359336440 205.0
78.381069320 203.0
78.402802200 190.0
78.424535080 201.0
78.446267960 172.0
78.468000840 209.0
78.489733720 201.0
78.511466600 218.0
78.533199480 191.0
78.554932360 239.0
78.576665240 219.0
78.598398120 214.0
78.620131000 211.0
78.641863880 197.0
78.663596760 269.0
78.685329640 243.0
78.707062520 182.0
78.728795400 191.0
78.750528280 206.0
78.772261160 193.0
78.793994040 220.0
78.815726920 214.0
78.837459800 183.0
78.859192680 190.0
78.880925560 240.0
78.902658440 248.0
78.924391320 204.0
78.946124200 215.0
78.967857080 204.0
78.989589960 205.0
79.011322840 189.0
79.033055720 170.0
79.054788600 198.0
79.076521480 206.0
79.098254360 175.0
79.119987240 178.0
79.141720120 194.0
79.163453000 176.0
79.185185880 193.0
79.206918760 206.0
79.228651640 201.0
79.250384520 190.0
79.272117400 187.0
79.293850280 206.0
79.315583160 176.0
79.337316040 183.0
79.359048920 201.0
79.380781800 188.0
79.402514680 202.0
79.424247560 183.0
79.445980440 176.0
79.467713320 228.0
79.489446200 198.0
79.511179080 209.0
79.532911960 173.0
79.554644840 172.0
79.576377720 198.0
79.598110600 199.0
79.619843480 176.0
79.641576360 197.0
79.663309240 194.0
79.685042120 195.0
79.706775000 192.0
79.728507880 211.0
79.750240760 194.0
79.771973640 195.0
79.793706520 170.0
79.815439400 188.0
79.837172280 215.0
79.858905160 206.0
79.880638040 197.0
79.902370920 196.0
79.924103800 177.0
79.945836680 188.0
79.967569560 206.0
79.989302440 208.0
80.011035320 189.0
80.032768200 192.0
80.054501080 193.0
80.076233960 214.0
80.097966840 205.0
80.119699720 208.0
80.141432600 185.0
80.163165480 211.0
80.184898360 231.0
80.206631240 203.0
80.228364120 220.0
80.250097000 216.0
80.271829880 183.0
80.293562760 181.0
80.315295640 196.0
80.337028520 185.0
80.358761400 171.0
80.380494280 184.0
80.402227160 179.0
80.423960040 176.0
80.445692920 193.0
80.467425800 182.0
80.489158680 180.0
80.510891560 210.0
80.532624440 183.0
80.554357320 187.0
80.576090200 204.0
80.597823080 190.0
80.619555960 210.0
80.641288840 209.0
80.663021720 179.0
80.684754600 180.0
80.706487480 199.0
80.728220360 190.0
80.749953240 177.0
80.771686120 202.0
80.793419000 198.0
80.815151880 208.0
80.836884760 183.0
80.858617640 210.0
80.880350520 215.0
80.902083400 207.0
80.923816280 169.0
80.945549160 199.0
80.967282040 198.0
80.989014920 206.0
81.010747800 182.0
81.032480680 193.0
81.054213560 180.0
81.075946440 210.0
81.097679320 185.0
81.119412200 207.0
81.141145080 197.0
81.162877960 198.0
81.184610840 184.0
81.206343720 183.0
81.228076600 182.0
81.249809480 179.0
81.271542360 174.0
81.293275240 196.0
81.315008120 182.0
81.336741000 191.0
81.358473880 175.0
81.380206760 182.0
81.401939640 196.0
81.423672520 205.0
81.445405400 181.0
81.467138280 209.0
81.488871160 224.0
81.510604040 224.0
81.532336920 198.0
81.554069800 198.0
81.575802680 158.0
81.597535560 185.0
81.619268440 186.0
81.641001320 214.0
81.662734200 209.0
81.684467080 180.0
81.706199960 201.0
81.727932840 183.0
81.749665720 199.0
81.771398600 202.0
81.793131480 198.0
81.814864360 192.0
81.836597240 212.0
81.858330120 182.0
81.880063000 209.0
81.901795880 173.0
81.923528760 203.0
81.945261640 200.0
81.966994520 205.0
81.988727400 163.0
82.010460280 178.0
82.032193160 205.0
82.053926040 201.0
82.075658920 189.0
82.097391800 189.0
82.119124680 163.0
82.140857560 184.0
82.162590440 177.0
82.184323320 202.0
82.206056200 196.0
82.227789080 182.0
82.249521960 174.0
82.271254840 171.0
82.292987720 196.0
82.314720600 187.0
82.336453480 226.0
82.358186360 177.0
82.379919240 203.0
82.401652120 177.0
82.423385000 181.0
82.445117880 175.0
82.466850760 204.0
82.488583640 201.0
82.510316520 190.0
82.532049400 196.0
82.553782280 212.0
82.575515160 192.0
82.597248040 215.0
82.618980920 245.0
82.640713800 230.0
82.662446680 230.0
82.684179560 233.0
82.705912440 220.0
82.727645320 229.0
82.749378200 213.0
82.771111080 239.0
82.792843960 231.0
82.814576840 244.0
82.836309720 219.0
82.858042600 218.0
82.879775480 214.0
82.901508360 218.0
82.923241240 216.0
82.944974120 227.0
82.966707000 175.0
82.988439880 180.0
83.010172760 212.0
83.031905640 216.0
83.053638520 235.0
83.075371400 208.0
83.097104280 232.0
83.118837160 224.0
83.140570040 230.0
83.162302920 202.0
83.184035800 184.0
83.205768680 220.0
83.227501560 204.0
83.249234440 192.0
83.270967320 225.0
83.292700200 242.0
83.314433080 196.0
83.336165960 215.0
83.357898840 235.0
83.379631720 225.0
83.401364600 224.0
83.423097480 244.0
83.444830360 243.0
83.466563240 264.0
83.488296120 289.0
83.510029000 288.0
83.531761880 268.0
83.553494760 301.0
83.575227640 342.0
83.596960520 308.0
83.618693400 327.0
83.640426280 342.0
83.662159160 331.0
83.683892040 395.0
83.705624920 386.0
83.727357800 470.0
83.749090680 486.0
83.770823560 550.0
83.792556440 614.0
83.814289320 726.0
83.836022200 829.0
83.857755080 1124.0
83.879487960 1336.0
83.901220840 1702.0
83.922953720 2087.0
83.944686600 2622.0
83.966419480 3146.0
83.988152360 3157.0
84.009885240 3193.0
84.031618120 2827.0
84.053351000 2387.0
84.075083880 1977.0
84.096816760 1653.0
84.118549640 1470.0
84.140282520 1399.0
84.162015400 1496.0
84.183748280 1585.0
84.205481160 1720.0
84.227214040 1850.0
84.248946920 1932.0
84.270679800 1778.0
84.292412680 1558.0
84.314145560 1278.0
84.335878440 1051.0
84.357611320 847.0
84.379344200 733.0
84.401077080 587.0
84.422809960 512.0
84.444542840 469.0
84.466275720 443.0
84.488008600 401.0
84.509741480 377.0
84.531474360 319.0
84.553207240 332.0
84.574940120 327.0
84.596673000 242.0
84.618405880 241.0
84.640138760 280.0
84.661871640 281.0
84.683604520 282.0
84.705337400 226.0
84.727070280 231.0
84.748803160 223.0
84.770536040 217.0
84.792268920 217.0
84.814001800 234.0
84.835734680 217.0
84.857467560 214.0
84.879200440 212.0
84.900933320 216.0
84.922666200 207.0
84.944399080 212.0
84.966131960 209.0
84.987864840 190.0
85.009597720 216.0
85.031330600 217.0
85.053063480 194.0
85.074796360 206.0
85.096529240 193.0
85.118262120 189.0
85.139995000 199.0
85.161727880 206.0
85.183460760 201.0
85.205193640 181.0
85.226926520 188.0
85.248659400 218.0
85.270392280 188.0
85.292125160 196.0
85.313858040 223.0
85.335590920 183.0
85.357323800 195.0
85.379056680 176.0
85.400789560 176.0
85.422522440 192.0
85.444255320 204.0
85.465988200 195.0
85.487721080 182.0
85.509453960 164.0
85.531186840 193.0
85.552919720 180.0
85.574652600 156.0
85.596385480 194.0
85.618118360 170.0
85.639851240 183.0
85.661584120 181.0
85.683317000 161.0
85.705049880 164.0
85.726782760 179.0
85.748515640 207.0
85.770248520 181.0
85.791981400 189.0
85.813714280 170.0
85.835447160 181.0
85.857180040 209.0
85.878912920 168.0
85.900645800 197.0
85.922378680 190.0
85.944111560 174.0
85.965844440 190.0
85.987577320 168.0
86.009310200 175.0
86.031043080 188.0
86.052775960 185.0
86.074508840 181.0
86.096241720 158.0
86.117974600 171.0
86.139707480 168.0
86.161440360 176.0
86.183173240 187.0
86.204906120 197.0
86.226639000 164.0
86.248371880 164.0
86.270104760 190.0
86.291837640 160.0
86.313570520 178.0
86.335303400 178.0
86.357036280 173.0
86.378769160 141.0
86.400502040 165.0
86.422234920 182.0
86.443967800 180.0
86.465700680 161.0
86.487433560 178.0
86.509166440 180.0
86.530899320 170.0
86.552632200 182.0
86.574365080 176.0
86.596097960 178.0
86.617830840 146.0
86.639563720 168.0
86.661296600 162.0
86.683029480 177.0
86.704762360 178.0
86.726495240 192.0
86.748228120 179.0
86.769961000 194.0
86.791693880 170.0
86.813426760 176.0
86.835159640 164.0
86.856892520 181.0
86.878625400 155.0
86.900358280 147.0
86.922091160 168.0
86.943824040 177.0
86.965556920 186.0
86.987289800 195.0
87.009022680 174.0
87.030755560 156.0
87.052488440 162.0
87.074221320 153.0
87.095954200 144.0
87.117687080 172.0
87.139419960 135.0
87.161152840 169.0
87.182885720 147.0
87.204618600 177.0
87.226351480 168.0
87.248084360 145.0
87.269817240 163.0
87.291550120 171.0
87.313283000 165.0
87.335015880 167.0
87.356748760 178.0
87.378481640 126.0
87.400214520 147.0
87.421947400 186.0
87.443680280 151.0
87.465413160 161.0
87.487146040 194.0
87.508878920 140.0
87.530611800 172.0
87.552344680 184.0
87.574077560 158.0
87.595810440 162.0
87.617543320 163.0
87.639276200 180.0
87.661009080 173.0
87.682741960 186.0
87.704474840 154.0
87.726207720 163.0
87.747940600 156.0
87.769673480 168.0
87.791406360 162.0
87.813139240 150.0
87.834872120 178.0
87.856605000 162.0
87.878337880 135.0
87.900070760 129.0
87.921803640 181.0
87.943536520 192.0
87.965269400 162.0
87.987002280 146.0
88.008735160 155.0
88.030468040 159.0
88.052200920 200.0
88.073933800 148.0
88.095666680 165.0
88.117399560 161.0
88.139132440 192.0
88.160865320 190.0
88.182598200 182.0
88.204331080 186.0
88.226063960 185.0
88.247796840 204.0
88.269529720 203.0
88.291262600 194.0
88.312995480 194.0
88.334728360 184.0
88.356461240 180.0
88.378194120 205.0
88.399927000 201.0
88.421659880 185.0
88.443392760 232.0
88.465125640 197.0
88.486858520 203.0
88.508591400 197.0
88.530324280 229.0
88.552057160 189.0
88.573790040 171.0
88.595522920 202.0
88.617255800 189.0
88.638988680 169.0
88.660721560 185.0
88.682454440 194.0
88.704187320 194.0
88.725920200 167.0
88.747653080 179.0
88.769385960 196.0
88.791118840 172.0
88.812851720 194.0
88.834584600 155.0
88.856317480 168.0
88.878050360 151.0
88.899783240 190.0
88.921516120 172.0
88.943249000 163.0
88.964981880 171.0
88.986714760 158.0
89.008447640 164.0
89.030180520 154.0
89.051913400 142.0
89.073646280 186.0
89.095379160 150.0
89.117112040 140.0
89.138844920 170.0
89.160577800 145.0
89.182310680 166.0
89.204043560 168.0
89.225776440 137.0
89.247509320 148.0
89.269242200 135.0
89.290975080 159.0
89.312707960 177.0
89.334440840 155.0
89.356173720 141.0
89.377906600 152.0
89.399639480 147.0
89.421372360 178.0
89.443105240 159.0
89.464838120 160.0
89.486571000 145.0
89.508303880 169.0
89.530036760 188.0
89.551769640 157.0
89.573502520 150.0
89.595235400 177.0
89.616968280 182.0
89.638701160 165.0
89.660434040 166.0
89.682166920 162.0
89.703899800 156.0
89.725632680 159.0
89.747365560 172.0
89.769098440 149.0
89.790831320 185.0
89.812564200 182.0
89.834297080 174.0
89.856029960 168.0
89.877762840 166.0
89.899495720 156.0
89.921228600 184.0
89.942961480 179.0
89.964694360 150.0
89.986427240 191.0
90.008160120 136.0
90.029893000 194.0
90.051625880 177.0
90.073358760 191.0
90.095091640 169.0
90.116824520 161.0
90.138557400 189.0
90.160290280 219.0
90.182023160 211.0
90.203756040 188.0
90.225488920 185.0
90.247221800 231.0
90.268954680 218.0
90.290687560 259.0
90.312420440 288.0
90.334153320 318.0
90.355886200 357.0
90.377619080 369.0
90.399351960 459.0
90.421084840 472.0
90.442817720 402.0
90.464550600 394.0
90.486283480 331.0
90.508016360 310.0
90.529749240 282.0
90.551482120 284.0
90.573215000 272.0
90.594947880 223.0
90.616680760 263.0
90.638413640 278.0
90.660146520 319.0
90.681879400 309.0
90.703612280 287.0
90.725345160 340.0
90.747078040 280.0
90.768810920 261.0
90.790543800 239.0
90.812276680 218.0
90.834009560 195.0
90.855742440 162.0
90.877475320 219.0
90.899208200 187.0
90.920941080 173.0
90.942673960 189.0
90.964406840 161.0
90.986139720 157.0
91.007872600 171.0
91.029605480 186.0
91.051338360 180.0
91.073071240 171.0
91.094804120 178.0
91.116537000 190.0
91.138269880 184.0
91.160002760 156.0
91.181735640 197.0
91.203468520 193.0
91.225201400 169.0
91.246934280 161.0
91.268667160 183.0
91.290400040 166.0
91.312132920 150.0
91.333865800 119.0
91.355598680 149.0
91.377331560 145.0
91.399064440 177.0
91.420797320 147.0
91.442530200 148.0
91.464263080 186.0
91.485995960 161.0
91.507728840 148.0
91.529461720 182.0
91.551194600 157.0
91.572927480 152.0
91.594660360 124.0
91.616393240 170.0
91.638126120 155.0
91.659859000 135.0
91.681591880 147.0
91.703324760 145.0
91.725057640 154.0
91.746790520 159.0
91.768523400 155.0
91.790256280 139.0
91.811989160 161.0
91.833722040 153.0
91.855454920 149.0
91.877187800 153.0
91.898920680 132.0
91.920653560 178.0
91.942386440 144.0
91.964119320 146.0
91.985852200 165.0
92.007585080 148.0
92.029317960 179.0
92.051050840 148.0
92.072783720 139.0
92.094516600 163.0
92.116249480 169.0
92.137982360 150.0
92.159715240 113.0
92.181448120 164.0
92.203181000 151.0
92.224913880 145.0
92.246646760 128.0
92.268379640 161.0
92.290112520 150.0
92.311845400 162.0
92.333578280 141.0
92.355311160 137.0
92.377044040 146.0
92.398776920 164.0
92.420509800 145.0
92.442242680 143.0
92.463975560 156.0
92.485708440 161.0
92.507441320 149.0
92.529174200 144.0
92.550907080 139.0
92.572639960 154.0
92.594372840 153.0
92.616105720 158.0
92.637838600 176.0
92.659571480 155.0
92.681304360 146.0
92.703037240 162.0
92.724770120 170.0
92.746503000 133.0
92.768235880 149.0
92.789968760 153.0
92.811701640 148.0
92.833434520 171.0
92.855167400 161.0
92.876900280 162.0
92.898633160 158.0
92.920366040 141.0
92.942098920 171.0
92.963831800 127.0
92.985564680 145.0
93.007297560 135.0
93.029030440 148.0
93.050763320 152.0
93.072496200 154.0
93.094229080 157.0
93.115961960 153.0
93.137694840 132.0
93.159427720 170.0
93.181160600 147.0
93.202893480 123.0
93.224626360 167.0
93.246359240 160.0
93.268092120 181.0
93.289825000 163.0
93.311557880 169.0
93.333290760 135.0
93.355023640 139.0
93.376756520 158.0
93.398489400 151.0
93.420222280 140.0
93.441955160 154.0
93.463688040 134.0
93.485420920 142.0
93.507153800 159.0
93.528886680 165.0
93.550619560 141.0
93.572352440 146.0
93.594085320 148.0
93.615818200 145.0
93.637551080 139.0
93.659283960 150.0
93.681016840 146.0
93.702749720 158.0
93.724482600 169.0
93.746215480 128.0
93.767948360 143.0
93.789681240 151.0
93.811414120 158.0
93.833147000 165.0
93.854879880 156.0
93.876612760 153.0
93.898345640 142.0
93.920078520 141.0
93.941811400 175.0
93.963544280 160.0
93.985277160 154.0
94.007010040 174.0
94.028742920 151.0
94.050475800 161.0
94.072208680 176.0
94.093941560 159.0
94.115674440 137.0
94.137407320 144.0
94.159140200 131.0
94.180873080 130.0
94.202605960 135.0
94.224338840 180.0
94.246071720 150.0
94.267804600 148.0
94.289537480 160.0
94.311270360 144.0
94.333003240 139.0
94.354736120 153.0
94.376469000 163.0
94.398201880 150.0
94.419934760 183.0
94.441667640 151.0
94.463400520 158.0
94.485133400 147.0
94.506866280 150.0
94.528599160 147.0
94.550332040 163.0
94.572064920 113.0
94.593797800 148.0
94.615530680 140.0
94.637263560 157.0
94.658996440 166.0
94.680729320 154.0
94.702462200 149.0
94.724195080 142.0
94.745927960 154.0
94.767660840 151.0
94.789393720 146.0
94.811126600 137.0
94.832859480 161.0
94.854592360 155.0
94.876325240 172.0
94.898058120 175.0
94.919791000 185.0
94.941523880 160.0
94.963256760 144.0
94.984989640 149.0
95.006722520 156.0
95.028455400 131.0
95.050188280 152.0
95.071921160 154.0
95.093654040 156.0
95.115386920 138.0
95.137119800 156.0
95.158852680 187.0
95.180585560 170.0
95.202318440 148.0
95.224051320 181.0
95.245784200 147.0
95.267517080 158.0
95.289249960 161.0
95.310982840 160.0
95.332715720 168.0
95.354448600 166.0
95.376181480 183.0
95.397914360 190.0
95.419647240 155.0
95.441380120 156.0
95.463113000 137.0
95.484845880 160.0
95.506578760 169.0
95.528311640 175.0
95.550044520 184.0
95.571777400 171.0
95.593510280 167.0
95.615243160 178.0
95.636976040 194.0
95.658708920 170.0
95.680441800 169.0
95.702174680 153.0
95.723907560 201.0
95.745640440 162.0
95.767373320 157.0
95.789106200 150.0
95.810839080 175.0
95.832571960 162.0
95.854304840 151.0
95.876037720 147.0
95.897770600 145.0
95.919503480 186.0
95.941236360 157.0
95.962969240 161.0
95.984702120 152.0
96.006435000 161.0
96.028167880 177.0
96.049900760 153.0
96.071633640 164.0
96.093366520 160.0
96.115099400 157.0
96.136832280 166.0
96.158565160 169.0
96.180298040 180.0
96.202030920 148.0
96.223763800 168.0
96.245496680 176.0
96.267229560 125.0
96.288962440 153.0
96.310695320 149.0
96.332428200 165.0
96.354161080 142.0
96.375893960 123.0
96.397626840 152.0
96.419359720 171.0
96.441092600 173.0
96.462825480 148.0
96.484558360 162.0
96.506291240 161.0
96.528024120 141.0
96.549757000 140.0
96.571489880 164.0
96.593222760 140.0
96.614955640 157.0
96.636688520 165.0
96.658421400 173.0
96.680154280 165.0
96.701887160 161.0
96.723620040 149.0
96.745352920 162.0
96.767085800 143.0
96.788818680 160.0
96.810551560 152.0
96.832284440 172.0
96.854017320 190.0
96.875750200 173.0
96.897483080 142.0
96.919215960 185.0
96.940948840 167.0
96.962681720 177.0
96.984414600 139.0
97.006147480 174.0
97.027880360 145.0
97.049613240 165.0
97.071346120 166.0
97.093079000 157.0
97.114811880 153.0
97.136544760 150.0
97.158277640 159.0
97.180010520 157.0
97.201743400 147.0
97.223476280 163.0
97.245209160 148.0
97.266942040 140.0
97.288674920 153.0
97.310407800 146.0
97.332140680 149.0
97.353873560 145.0
97.375606440 155.0
97.397339320 140.0
97.419072200 158.0
97.440805080 169.0
97.462537960 155.0
97.484270840 134.0
97.506003720 159.0
97.527736600 135.0
97.549469480 147.0
97.571202360 130.0
97.592935240 166.0
97.614668120 133.0
97.636401000 145.0
97.658133880 157.0
97.679866760 166.0
97.701599640 161.0
97.723332520 158.0
97.745065400 177.0
97.766798280 151.0
97.788531160 170.0
97.810264040 158.0
97.831996920 171.0
97.853729800 163.0
97.875462680 147.0
97.897195560 154.0
97.918928440 136.0
97.940661320 156.0
97.962394200 166.0
97.984127080 148.0
98.005859960 138.0
98.027592840 149.0
98.049325720 146.0
98.071058600 167.0
98.092791480 158.0
98.114524360 174.0
98.136257240 136.0
98.157990120 142.0
98.179723000 158.0
98.201455880 159.0
98.223188760 164.0
98.244921640 173.0
98.266654520 142.0
98.288387400 160.0
98.310120280 162.0
98.331853160 179.0
98.353586040 163.0
98.375318920 165.0
98.397051800 155.0
98.418784680 156.0
98.440517560 150.0
98.462250440 151.0
98.483983320 143.0
98.505716200 121.0
98.527449080 161.0
98.549181960 168.0
98.570914840 189.0
98.592647720 161.0
98.614380600 170.0
98.636113480 157.0
98.657846360 146.0
98.679579240 159.0
98.701312120 168.0
98.723045000 161.0
98.744777880 153.0
98.766510760 126.0
98.788243640 169.0
98.809976520 180.0
98.831709400 151.0
98.853442280 171.0
98.875175160 150.0
98.896908040 159.0
98.918640920 178.0
98.940373800 162.0
98.962106680 170.0
98.983839560 147.0
99.005572440 155.0
99.027305320 140.0
99.049038200 152.0
99.070771080 165.0
99.092503960 152.0
99.114236840 155.0
99.135969720 160.0
99.157702600 180.0
99.179435480 162.0
99.201168360 163.0
99.222901240 148.0
99.244634120 134.0
99.266367000 152.0
99.288099880 154.0
99.309832760 140.0
99.331565640 152.0
99.353298520 171.0
99.375031400 149.0
99.396764280 167.0
99.418497160 145.0
99.440230040 170.0
99.461962920 147.0
99.483695800 163.0
99.505428680 147.0
99.527161560 145.0
99.548894440 152.0
99.570627320 177.0
99.592360200 148.0
99.614093080 182.0
99.635825960 149.0
99.657558840 152.0
99.679291720 156.0
99.701024600 162.0
99.722757480 157.0
99.744490360 158.0
99.766223240 159.0
99.787956120 140.0
99.809689000 156.0
99.831421880 195.0
99.853154760 158.0
99.874887640 150.0
99.896620520 167.0
99.918353400 152.0
99.940086280 159.0
99.961819160 154.0
99.983552040 153.0
100.005284920 168.0
100.027017800 159.0
100.048750680 144.0
100.070483560 162.0
100.092216440 177.0
100.113949320 177.0
100.135682200 146.0
100.157415080 179.0
100.179147960 165.0
100.200880840 160.0
100.222613720 176.0
100.244346600 162.0
100.266079480 147.0
100.287812360 189.0
100.309545240 171.0
100.331278120 163.0
100.353011000 156.0
100.374743880 157.0
100.396476760 181.0
100.418209640 173.0
100.439942520 182.0
100.461675400 173.0
100.483408280 188.0
100.505141160 189.0
100.526874040 170.0
100.548606920 185.0
100.570339800 170.0
100.592072680 169.0
100.613805560 187.0
100.635538440 171.0
100.657271320 177.0
100.679004200 198.0
100.700737080 202.0
100.722469960 184.0
100.744202840 210.0
100.765935720 223.0
100.787668600 232.0
100.809401480 193.0
100.831134360 228.0
100.852867240 210.0
100.874600120 242.0
100.896333000 244.0
100.918065880 287.0
100.939798760 291.0
100.961531640 300.0
100.983264520 348.0
101.004997400 408.0
101.026730280 426.0
101.048463160 469.0
101.070196040 536.0
101.091928920 637.0
101.113661800 661.0
101.135394680 721.0
101.157127560 759.0
101.178860440 770.0
101.200593320 659.0
101.222326200 692.0
101.244059080 609.0
101.265791960 574.0
101.287524840 466.0
101.309257720 457.0
101.330990600 415.0
101.352723480 426.0
101.374456360 432.0
101.396189240 440.0
101.417922120 475.0
101.439655000 454.0
101.461387880 474.0
101.483120760 478.0
101.504853640 486.0
101.526586520 510.0
101.548319400 483.0
101.570052280 435.0
101.591785160 380.0
101.613518040 343.0
101.635250920 337.0
101.656983800 332.0
101.678716680 299.0
101.700449560 256.0
101.722182440 277.0
101.743915320 245.0
101.765648200 205.0
101.787381080 194.0
101.809113960 205.0
101.830846840 191.0
101.852579720 185.0
101.874312600 183.0
101.896045480 203.0
101.917778360 178.0
101.939511240 188.0
101.961244120 164.0
101.982977000 181.0
102.004709880 183.0
102.026442760 166.0
102.048175640 189.0
102.069908520 198.0
102.091641400 220.0
102.113374280 163.0
102.135107160 188.0
102.156840040 188.0
102.178572920 191.0
102.200305800 160.0
102.222038680 157.0
102.243771560 163.0
102.265504440 150.0
102.287237320 221.0
102.308970200 198.0
102.330703080 161.0
102.352435960 193.0
102.374168840 185.0
102.395901720 205.0
102.417634600 189.0
102.439367480 182.0
102.461100360 171.0
102.482833240 181.0
102.504566120 192.0
102.526299000 175.0
102.548031880 167.0
102.569764760 178.0
102.591497640 168.0
102.613230520 173.0
102.634963400 168.0
102.656696280 179.0
102.678429160 184.0
102.700162040 187.0
102.721894920 187.0
102.743627800 180.0
102.765360680 181.0
102.787093560 186.0
102.808826440 175.0
102.830559320 182.0
102.852292200 187.0
102.874025080 178.0
102.895757960 142.0
102.917490840 154.0
102.939223720 189.0
102.960956600 160.0
102.982689480 164.0
103.004422360 155.0
103.026155240 178.0
103.047888120 169.0
103.069621000 157.0
103.091353880 186.0
103.113086760 170.0
103.134819640 152.0
103.156552520 168.0
103.178285400 198.0
103.200018280 163.0
103.221751160 145.0
103.243484040 173.0
103.265216920 184.0
103.286949800 191.0
103.308682680 163.0
103.330415560 181.0
103.352148440 165.0
103.373881320 175.0
103.395614200 200.0
103.417347080 161.0
103.439079960 180.0
103.460812840 170.0
103.482545720 182.0
103.504278600 166.0
103.526011480 151.0
103.547744360 161.0
103.569477240 142.0
103.591210120 177.0
103.612943000 159.0
103.634675880 156.0
103.656408760 146.0
103.678141640 192.0
103.699874520 163.0
103.721607400 182.0
103.743340280 164.0
103.765073160 142.0
103.786806040 155.0
103.808538920 155.0
103.830271800 160.0
103.852004680 158.0
103.873737560 174.0
103.895470440 150.0
103.917203320 153.0
103.938936200 128.0
103.960669080 145.0
103.982401960 173.0
104.004134840 163.0
104.025867720 165.0
104.047600600 174.0
104.069333480 182.0
104.091066360 176.0
104.112799240 175.0
104.134532120 160.0
104.156265000 155.0
104.177997880 190.0
104.199730760 143.0
104.221463640 149.0
104.243196520 180.0
104.264929400 187.0
104.286662280 156.0
104.308395160 145.0
104.330128040 138.0
104.351860920 178.0
104.373593800 178.0
104.395326680 180.0
104.417059560 172.0
104.438792440 150.0
104.460525320 170.0
104.482258200 193.0
104.503991080 162.0
104.525723960 171.0
104.547456840 168.0
104.569189720 179.0
104.590922600 175.0
104.612655480 166.0
104.634388360 169.0
104.656121240 156.0
104.677854120 191.0
104.699587000 172.0
104.721319880 162.0
104.743052760 192.0
104.764785640 154.0
104.786518520 177.0
104.808251400 168.0
104.829984280 178.0
104.851717160 164.0
104.873450040 174.0
104.895182920 174.0
104.916915800 165.0
104.938648680 196.0
104.960381560 180.0
104.982114440 171.0
105.003847320 171.0
105.025580200 197.0
105.047313080 192.0
105.069045960 177.0
105.090778840 196.0
105.112511720 189.0
105.134244600 196.0
105.155977480 171.0
105.177710360 194.0
105.199443240 184.0
105.221176120 188.0
105.242909000 190.0
105.264641880 192.0
105.286374760 188.0
105.308107640 170.0
105.329840520 192.0
105.351573400 188.0
105.373306280 162.0
105.395039160 169.0
105.416772040 182.0
105.438504920 178.0
105.460237800 207.0
105.481970680 195.0
105.503703560 175.0
105.525436440 192.0
105.547169320 169.0
105.568902200 176.0
105.590635080 181.0
105.612367960 186.0
105.634100840 162.0
105.655833720 177.0
105.677566600 173.0
105.699299480 164.0
105.721032360 178.0
105.742765240 149.0
105.764498120 181.0
105.786231000 175.0
105.807963880 177.0
105.829696760 183.0
105.851429640 177.0
105.873162520 172.0
105.894895400 160.0
105.916628280 192.0
105.938361160 177.0
105.960094040 171.0
105.981826920 182.0
106.003559800 178.0
106.025292680 161.0
106.047025560 175.0
106.068758440 191.0
106.090491320 186.0
106.112224200 172.0
106.133957080 183.0
106.155689960 196.0
106.177422840 187.0
106.199155720 194.0
106.220888600 188.0
106.242621480 172.0
106.264354360 186.0
106.286087240 171.0
106.307820120 190.0
106.329553000 185.0
106.351285880 180.0
106.373018760 194.0
106.394751640 185.0
106.416484520 193.0
106.438217400 177.0
106.459950280 190.0
106.481683160 169.0
106.503416040 163.0
106.525148920 165.0
106.546881800 176.0
106.568614680 172.0
106.590347560 178.0
106.612080440 184.0
106.633813320 166.0
106.655546200 190.0
106.677279080 172.0
106.699011960 184.0
106.720744840 187.0
106.742477720 204.0
106.764210600 188.0
106.785943480 188.0
106.807676360 207.0
106.829409240 184.0
106.851142120 168.0
106.872875000 187.0
106.894607880 226.0
106.916340760 191.0
106.938073640 165.0
106.959806520 206.0
106.981539400 170.0
107.003272280 193.0
107.025005160 199.0
107.046738040 186.0
107.068470920 193.0
107.090203800 161.0
107.111936680 189.0
107.133669560 189.0
107.155402440 206.0
107.177135320 190.0
107.198868200 183.0
107.220601080 192.0
107.242333960 193.0
107.264066840 175.0
107.285799720 185.0
107.307532600 211.0
107.329265480 225.0
107.350998360 220.0
107.372731240 206.0
107.394464120 207.0
107.416197000 175.0
107.437929880 188.0
107.459662760 221.0
107.481395640 220.0
107.503128520 250.0
107.524861400 222.0
107.546594280 194.0
107.568327160 260.0
107.590060040 242.0
107.611792920 234.0
107.633525800 259.0
107.655258680 294.0
107.676991560 331.0
107.698724440 330.0
107.720457320 356.0
107.742190200 407.0
107.763923080 429.0
107.785655960 438.0
107.807388840 427.0
107.829121720 400.0
107.850854600 369.0
107.872587480 344.0
107.894320360 348.0
107.916053240 306.0
107.937786120 316.0
107.959519000 320.0
107.981251880 297.0
108.002984760 283.0
108.024717640 279.0
108.046450520 307.0
108.068183400 291.0
108.089916280 319.0
108.111649160 312.0
108.133382040 362.0
108.155114920 324.0
108.176847800 336.0
108.198580680 310.0
108.220313560 326.0
108.242046440 282.0
108.263779320 290.0
108.285512200 242.0
108.307245080 282.0
108.328977960 236.0
108.350710840 233.0
108.372443720 230.0
108.394176600 207.0
108.415909480 221.0
108.437642360 237.0
108.459375240 190.0
108.481108120 197.0
108.502841000 196.0
108.524573880 221.0
108.546306760 215.0
108.568039640 219.0
108.589772520 211.0
108.611505400 198.0
108.633238280 224.0
108.654971160 215.0
108.676704040 197.0
108.698436920 212.0
108.720169800 197.0
108.741902680 195.0
108.763635560 197.0
108.785368440 211.0
108.807101320 177.0
108.828834200 210.0
108.850567080 222.0
108.872299960 201.0
108.894032840 178.0
108.915765720 219.0
108.937498600 206.0
108.959231480 229.0
108.980964360 210.0
109.002697240 205.0
109.024430120 221.0
109.046163000 231.0
109.067895880 258.0
109.089628760 221.0
109.111361640 222.0
109.133094520 226.0
109.154827400 229.0
109.176560280 234.0
109.198293160 208.0
109.220026040 233.0
109.241758920 205.0
109.263491800 210.0
109.285224680 244.0
109.306957560 248.0
109.328690440 248.0
109.350423320 242.0
109.372156200 238.0
109.393889080 224.0
109.415621960 248.0
109.437354840 242.0
109.459087720 243.0
109.480820600 259.0
109.502553480 272.0
109.524286360 261.0
109.546019240 282.0
109.567752120 296.0
109.589485000 319.0
109.611217880 314.0
109.632950760 301.0
109.654683640 340.0
109.676416520 352.0
109.698149400 338.0
109.719882280 387.0
109.741615160 450.0
109.763348040 449.0
109.785080920 484.0
109.806813800 517.0
109.828546680 567.0
109.850279560 664.0
109.872012440 736.0
109.893745320 876.0
109.915478200 969.0
109.937211080 1167.0
109.958943960 1309.0
109.980676840 1477.0
110.002409720 1686.0
