[Measurement conditions]
Sample identification,NaCl_sin_TT
Comment,
Anode material,Cu
K-Alpha1 wavelength,1.5405980
K-Alpha2 wavelength,1.5444260
Ratio K-Alpha2/K-Alpha1,0.500
Divergence slit,Fixed,0.76mm
Monochromator used,NO
Generator voltage, 40
Tube current,  8
File date and time,24/Jun./2022 01:09
Unit cell,
h k l, 0 0 0
Scan axis,Gonio
Scan range,5.000000000,110.013276160
Scan step size,0.0217329
No. of points, 4832
Scan type,CONTINUOUS
Time per step,49.470
[Scan points]
Angle,Intensity
5.010866440,3908.0
5.032599320,3851.0
5.054332200,3897.0
5.076065080,3788.0
5.097797960,3786.0
5.119530840,3652.0
5.141263720,3702.0
5.162996600,3568.0
5.184729480,3600.0
5.206462360,3656.0
5.228195240,3505.0
5.249928120,3389.0
5.271661000,3361.0
5.293393880,3444.0
5.315126760,3489.0
5.336859640,3380.0
5.358592520,3363.0
5.380325400,3279.0
5.402058280,3213.0
5.423791160,3266.0
5.445524040,3220.0
5.467256920,3167.0
5.488989800,3153.0
5.510722680,3030.0
5.532455560,3159.0
5.554188440,3044.0
5.575921320,3020.0
5.597654200,2924.0
5.619387080,2962.0
5.641119960,2988.0
5.662852840,2847.0
5.684585720,2858.0
5.706318600,2853.0
5.728051480,2851.0
5.749784360,2829.0
5.771517240,2852.0
5.793250120,2767.0
5.814983000,2680.0
5.836715880,2702.0
5.858448760,2749.0
5.880181640,2660.0
5.901914520,2683.0
5.923647400,2718.0
5.945380280,2704.0
5.967113160,2637.0
5.988846040,2593.0
6.010578920,2595.0
6.032311800,2598.0
6.054044680,2643.0
6.075777560,2496.0
6.097510440,2551.0
6.119243320,2544.0
6.140976200,2600.0
6.162709080,2537.0
6.184441960,2609.0
6.206174840,2536.0
6.227907720,2547.0
6.249640600,2431.0
6.271373480,2563.0
6.293106360,2423.0
6.314839240,2461.0
6.336572120,2437.0
6.358305000,2500.0
6.380037880,2486.0
6.401770760,2478.0
6.423503640,2412.0
6.445236520,2489.0
6.466969400,2503.0
6.488702280,2378.0
6.510435160,2475.0
6.532168040,2516.0
6.553900920,2506.0
6.575633800,2471.0
6.597366680,2448.0
6.619099560,2433.0
6.640832440,2486.0
6.662565320,2398.0
6.684298200,2285.0
6.706031080,2413.0
6.727763960,2357.0
6.749496840,2335.0
6.771229720,2405.0
6.792962600,2405.0
6.814695480,2305.0
6.836428360,2316.0
6.858161240,2395.0
6.879894120,2447.0
6.901627000,2406.0
6.923359880,2440.0
6.945092760,2435.0
6.966825640,2365.0
6.988558520,2269.0
7.010291400,2449.0
7.032024280,2289.0
7.053757160,2341.0
7.075490040,2241.0
7.097222920,2360.0
7.118955800,2331.0
7.140688680,2327.0
7.162421560,2286.0
7.184154440,2373.0
7.205887320,2340.0
7.227620200,2388.0
7.249353080,2344.0
7.271085960,2292.0
7.292818840,2388.0
7.314551720,2322.0
7.336284600,2194.0
7.358017480,2359.0
7.379750360,2361.0
7.401483240,2281.0
7.423216120,2374.0
7.444949000,2373.0
7.466681880,2379.0
7.488414760,2315.0
7.510147640,2366.0
7.531880520,2295.0
7.553613400,2355.0
7.575346280,2325.0
7.597079160,2353.0
7.618812040,2324.0
7.640544920,2350.0
7.662277800,2255.0
7.684010680,2442.0
7.705743560,2352.0
7.727476440,2337.0
7.749209320,2341.0
7.770942200,2360.0
7.792675080,2257.0
7.814407960,2296.0
7.836140840,2295.0
7.857873720,2267.0
7.879606600,2281.0
7.901339480,2170.0
7.923072360,2390.0
7.944805240,2301.0
7.966538120,2346.0
7.988271000,2329.0
8.010003880,2451.0
8.031736760,2369.0
8.053469640,2308.0
8.075202520,2343.0
8.096935400,2400.0
8.118668280,2416.0
8.140401160,2322.0
8.162134040,2367.0
8.183866920,2321.0
8.205599800,2363.0
8.227332680,2352.0
8.249065560,2329.0
8.270798440,2316.0
8.292531320,2366.0
8.314264200,2325.0
8.335997080,2331.0
8.357729960,2480.0
8.379462840,2379.0
8.401195720,2301.0
8.422928600,2327.0
8.444661480,2370.0
8.466394360,2348.0
8.488127240,2327.0
8.509860120,2393.0
8.531593000,2311.0
8.553325880,2380.0
8.575058760,2412.0
8.596791640,2354.0
8.618524520,2265.0
8.640257400,2270.0
8.661990280,2341.0
8.683723160,2386.0
8.705456040,2290.0
8.727188920,2323.0
8.748921800,2378.0
8.770654680,2467.0
8.792387560,2334.0
8.814120440,2374.0
8.835853320,2364.0
8.857586200,2432.0
8.879319080,2368.0
8.901051960,2430.0
8.922784840,2418.0
8.944517720,2340.0
8.966250600,2382.0
8.987983480,2300.0
9.009716360,2330.0
9.031449240,2405.0
9.053182120,2366.0
9.074915000,2334.0
9.096647880,2350.0
9.118380760,2447.0
9.140113640,2475.0
9.161846520,2383.0
9.183579400,2427.0
9.205312280,2373.0
9.227045160,2514.0
9.248778040,2433.0
9.270510920,2512.0
9.292243800,2453.0
9.313976680,2411.0
9.335709560,2340.0
9.357442440,2394.0
9.379175320,2321.0
9.400908200,2351.0
9.422641080,2351.0
9.444373960,2403.0
9.466106840,2359.0
9.487839720,2392.0
9.509572600,2411.0
9.531305480,2437.0
9.553038360,2461.0
9.574771240,2522.0
9.596504120,2429.0
9.618237000,2404.0
9.639969880,2363.0
9.661702760,2394.0
9.683435640,2477.0
9.705168520,2478.0
9.726901400,2378.0
9.748634280,2415.0
9.770367160,2494.0
9.792100040,2376.0
9.813832920,2495.0
9.835565800,2432.0
9.857298680,2423.0
9.879031560,2426.0
9.900764440,2416.0
9.922497320,2509.0
9.944230200,2411.0
9.965963080,2418.0
9.987695960,2414.0
10.009428840,2423.0
10.031161720,2433.0
10.052894600,2378.0
10.074627480,2431.0
10.096360360,2530.0
10.118093240,2443.0
10.139826120,2375.0
10.161559000,2427.0
10.183291880,2576.0
10.205024760,2571.0
10.226757640,2439.0
10.248490520,2418.0
10.270223400,2546.0
10.291956280,2531.0
10.313689160,2412.0
10.335422040,2470.0
10.357154920,2513.0
10.378887800,2425.0
10.400620680,2457.0
10.422353560,2512.0
10.444086440,2497.0
10.465819320,2523.0
10.487552200,2525.0
10.509285080,2436.0
10.531017960,2455.0
10.552750840,2461.0
10.574483720,2513.0
10.596216600,2524.0
10.617949480,2383.0
10.639682360,2421.0
10.661415240,2407.0
10.683148120,2416.0
10.704881000,2396.0
10.726613880,2391.0
10.748346760,2456.0
10.770079640,2335.0
10.791812520,2482.0
10.813545400,2457.0
10.835278280,2580.0
10.857011160,2547.0
10.878744040,2499.0
10.900476920,2541.0
10.922209800,2455.0
10.943942680,2473.0
10.965675560,2549.0
10.987408440,2620.0
11.009141320,2492.0
11.030874200,2496.0
11.052607080,2537.0
11.074339960,2525.0
11.096072840,2528.0
11.117805720,2541.0
11.139538600,2571.0
11.161271480,2672.0
11.183004360,2643.0
11.204737240,2758.0
11.226470120,2850.0
11.248203000,2890.0
11.269935880,2904.0
11.291668760,2897.0
11.313401640,2970.0
11.335134520,3136.0
11.356867400,3183.0
11.378600280,3350.0
11.400333160,3658.0
11.422066040,3940.0
11.443798920,4077.0
11.465531800,4638.0
11.487264680,5373.0
11.508997560,6384.0
11.530730440,9113.0
11.552463320,13702.0
11.574196200,16700.0
11.595929080,16061.0
11.617661960,12023.0
11.639394840,7717.0
11.661127720,5108.0
11.682860600,3761.0
11.704593480,3074.0
11.726326360,2716.0
11.748059240,2609.0
11.769792120,2679.0
11.791525000,2753.0
11.813257880,2652.0
11.834990760,2557.0
11.856723640,2578.0
11.878456520,2673.0
11.900189400,2655.0
11.921922280,2534.0
11.943655160,2477.0
11.965388040,2504.0
11.987120920,2443.0
12.008853800,2502.0
12.030586680,2509.0
12.052319560,2557.0
12.074052440,2523.0
12.095785320,2417.0
12.117518200,2393.0
12.139251080,2524.0
12.160983960,2502.0
12.182716840,2543.0
12.204449720,2575.0
12.226182600,2452.0
12.247915480,2425.0
12.269648360,2515.0
12.291381240,2498.0
12.313114120,2558.0
12.334847000,2514.0
12.356579880,2443.0
12.378312760,2502.0
12.400045640,2490.0
12.421778520,2456.0
12.443511400,2441.0
12.465244280,2424.0
12.486977160,2398.0
12.508710040,2357.0
12.530442920,2460.0
12.552175800,2484.0
12.573908680,2398.0
12.595641560,2434.0
12.617374440,2445.0
12.639107320,2382.0
12.660840200,2429.0
12.682573080,2383.0
12.704305960,2505.0
12.726038840,2431.0
12.747771720,2316.0
12.769504600,2444.0
12.791237480,2435.0
12.812970360,2400.0
12.834703240,2360.0
12.856436120,2394.0
12.878169000,2382.0
12.899901880,2366.0
12.921634760,2419.0
12.943367640,2377.0
12.965100520,2441.0
12.986833400,2295.0
13.008566280,2352.0
13.030299160,2473.0
13.052032040,2337.0
13.073764920,2349.0
13.095497800,2447.0
13.117230680,2404.0
13.138963560,2379.0
13.160696440,2292.0
13.182429320,2379.0
13.204162200,2329.0
13.225895080,2347.0
13.247627960,2366.0
13.269360840,2341.0
13.291093720,2424.0
13.312826600,2359.0
13.334559480,2333.0
13.356292360,2372.0
13.378025240,2284.0
13.399758120,2367.0
13.421491000,2258.0
13.443223880,2369.0
13.464956760,2270.0
13.486689640,2371.0
13.508422520,2296.0
13.530155400,2333.0
13.551888280,2393.0
13.573621160,2374.0
13.595354040,2281.0
13.617086920,2306.0
13.638819800,2283.0
13.660552680,2266.0
13.682285560,2327.0
13.704018440,2331.0
13.725751320,2274.0
13.747484200,2328.0
13.769217080,2267.0
13.790949960,2260.0
13.812682840,2327.0
13.834415720,2293.0
13.856148600,2300.0
13.877881480,2280.0
13.899614360,2241.0
13.921347240,2249.0
13.943080120,2260.0
13.964813000,2233.0
13.986545880,2224.0
14.008278760,2228.0
14.030011640,2256.0
14.051744520,2229.0
14.073477400,2172.0
14.095210280,2269.0
14.116943160,2150.0
14.138676040,2208.0
14.160408920,2253.0
14.182141800,2245.0
14.203874680,2163.0
14.225607560,2102.0
14.247340440,2148.0
14.269073320,2141.0
14.290806200,2236.0
14.312539080,2206.0
14.334271960,2146.0
14.356004840,2162.0
14.377737720,2241.0
14.399470600,2189.0
14.421203480,2318.0
14.442936360,2225.0
14.464669240,2229.0
14.486402120,2285.0
14.508135000,2196.0
14.529867880,2143.0
14.551600760,2179.0
14.573333640,2233.0
14.595066520,2175.0
14.616799400,2195.0
14.638532280,2130.0
14.660265160,2149.0
14.681998040,2099.0
14.703730920,2154.0
14.725463800,2114.0
14.747196680,2122.0
14.768929560,2090.0
14.790662440,2119.0
14.812395320,2217.0
14.834128200,2155.0
14.855861080,2111.0
14.877593960,2088.0
14.899326840,2130.0
14.921059720,2083.0
14.942792600,2018.0
14.964525480,2137.0
14.986258360,2137.0
15.007991240,2015.0
15.029724120,2093.0
15.051457000,2037.0
15.073189880,2109.0
15.094922760,2048.0
15.116655640,2088.0
15.138388520,2006.0
15.160121400,2001.0
15.181854280,2145.0
15.203587160,2080.0
15.225320040,2097.0
15.247052920,2030.0
15.268785800,2109.0
15.290518680,2001.0
15.312251560,2177.0
15.333984440,2133.0
15.355717320,2062.0
15.377450200,2024.0
15.399183080,2092.0
15.420915960,2089.0
15.442648840,2002.0
15.464381720,2034.0
15.486114600,1984.0
15.507847480,1971.0
15.529580360,2013.0
15.551313240,2006.0
15.573046120,2082.0
15.594779000,2001.0
15.616511880,2042.0
15.638244760,1931.0
15.659977640,1980.0
15.681710520,2094.0
15.703443400,1996.0
15.725176280,1884.0
15.746909160,1944.0
15.768642040,1967.0
15.790374920,1967.0
15.812107800,1954.0
15.833840680,2035.0
15.855573560,2094.0
15.877306440,2008.0
15.899039320,2018.0
15.920772200,1838.0
15.942505080,1918.0
15.964237960,1927.0
15.985970840,1998.0
16.007703720,1998.0
16.029436600,2003.0
16.051169480,1863.0
16.072902360,1946.0
16.094635240,1909.0
16.116368120,1856.0
16.138101000,1923.0
16.159833880,1864.0
16.181566760,1884.0
16.203299640,1816.0
16.225032520,1903.0
16.246765400,1901.0
16.268498280,1817.0
16.290231160,1792.0
16.311964040,1899.0
16.333696920,1918.0
16.355429800,1882.0
16.377162680,1910.0
16.398895560,1915.0
16.420628440,1979.0
16.442361320,1811.0
16.464094200,1854.0
16.485827080,1902.0
16.507559960,1885.0
16.529292840,1782.0
16.551025720,1882.0
16.572758600,1864.0
16.594491480,1851.0
16.616224360,1884.0
16.637957240,1830.0
16.659690120,1706.0
16.681423000,1868.0
16.703155880,1831.0
16.724888760,1753.0
16.746621640,1872.0
16.768354520,1847.0
16.790087400,1905.0
16.811820280,1762.0
16.833553160,1717.0
16.855286040,1828.0
16.877018920,1775.0
16.898751800,1748.0
16.920484680,1780.0
16.942217560,1724.0
16.963950440,1767.0
16.985683320,1886.0
17.007416200,1799.0
17.029149080,1746.0
17.050881960,1784.0
17.072614840,1752.0
17.094347720,1707.0
17.116080600,1806.0
17.137813480,1728.0
17.159546360,1708.0
17.181279240,1757.0
17.203012120,1745.0
17.224745000,1793.0
17.246477880,1701.0
17.268210760,1720.0
17.289943640,1704.0
17.311676520,1766.0
17.333409400,1752.0
17.355142280,1718.0
17.376875160,1752.0
17.398608040,1807.0
17.420340920,1735.0
17.442073800,1768.0
17.463806680,1726.0
17.485539560,1792.0
17.507272440,1689.0
17.529005320,1720.0
17.550738200,1770.0
17.572471080,1667.0
17.594203960,1738.0
17.615936840,1739.0
17.637669720,1703.0
17.659402600,1782.0
17.681135480,1598.0
17.702868360,1678.0
17.724601240,1767.0
17.746334120,1716.0
17.768067000,1678.0
17.789799880,1717.0
17.811532760,1705.0
17.833265640,1715.0
17.854998520,1643.0
17.876731400,1715.0
17.898464280,1696.0
17.920197160,1703.0
17.941930040,1651.0
17.963662920,1619.0
17.985395800,1631.0
18.007128680,1649.0
18.028861560,1622.0
18.050594440,1640.0
18.072327320,1709.0
18.094060200,1677.0
18.115793080,1660.0
18.137525960,1593.0
18.159258840,1588.0
18.180991720,1558.0
18.202724600,1676.0
18.224457480,1653.0
18.246190360,1640.0
18.267923240,1609.0
18.289656120,1468.0
18.311389000,1461.0
18.333121880,1520.0
18.354854760,1577.0
18.376587640,1531.0
18.398320520,1588.0
18.420053400,1528.0
18.441786280,1534.0
18.463519160,1592.0
18.485252040,1544.0
18.506984920,1544.0
18.528717800,1542.0
18.550450680,1465.0
18.572183560,1629.0
18.593916440,1598.0
18.615649320,1525.0
18.637382200,1597.0
18.659115080,1487.0
18.680847960,1513.0
18.702580840,1433.0
18.724313720,1527.0
18.746046600,1603.0
18.767779480,1548.0
18.789512360,1540.0
18.811245240,1566.0
18.832978120,1499.0
18.854711000,1566.0
18.876443880,1462.0
18.898176760,1523.0
18.919909640,1509.0
18.941642520,1462.0
18.963375400,1475.0
18.985108280,1483.0
19.006841160,1506.0
19.028574040,1507.0
19.050306920,1492.0
19.072039800,1483.0
19.093772680,1518.0
19.115505560,1447.0
19.137238440,1445.0
19.158971320,1553.0
19.180704200,1472.0
19.202437080,1408.0
19.224169960,1448.0
19.245902840,1477.0
19.267635720,1459.0
19.289368600,1476.0
19.311101480,1474.0
19.332834360,1460.0
19.354567240,1418.0
19.376300120,1418.0
19.398033000,1462.0
19.419765880,1501.0
19.441498760,1446.0
19.463231640,1451.0
19.484964520,1427.0
19.506697400,1465.0
19.528430280,1429.0
19.550163160,1437.0
19.571896040,1314.0
19.593628920,1366.0
19.615361800,1530.0
19.637094680,1410.0
19.658827560,1445.0
19.680560440,1421.0
19.702293320,1517.0
19.724026200,1456.0
19.745759080,1463.0
19.767491960,1471.0
19.789224840,1418.0
19.810957720,1418.0
19.832690600,1377.0
19.854423480,1422.0
19.876156360,1365.0
19.897889240,1466.0
19.919622120,1405.0
19.941355000,1380.0
19.963087880,1363.0
19.984820760,1440.0
20.006553640,1449.0
20.028286520,1352.0
20.050019400,1346.0
20.071752280,1341.0
20.093485160,1384.0
20.115218040,1358.0
20.136950920,1350.0
20.158683800,1338.0
20.180416680,1501.0
20.202149560,1437.0
20.223882440,1323.0
20.245615320,1333.0
20.267348200,1345.0
20.289081080,1365.0
20.310813960,1470.0
20.332546840,1362.0
20.354279720,1469.0
20.376012600,1328.0
20.397745480,1378.0
20.419478360,1424.0
20.441211240,1414.0
20.462944120,1435.0
20.484677000,1453.0
20.506409880,1502.0
20.528142760,1478.0
20.549875640,1526.0
20.571608520,1531.0
20.593341400,1631.0
20.615074280,1716.0
20.636807160,1790.0
20.658540040,1850.0
20.680272920,1701.0
20.702005800,1703.0
20.723738680,1585.0
20.745471560,1492.0
20.767204440,1486.0
20.788937320,1398.0
20.810670200,1346.0
20.832403080,1314.0
20.854135960,1346.0
20.875868840,1293.0
20.897601720,1297.0
20.919334600,1290.0
20.941067480,1305.0
20.962800360,1309.0
20.984533240,1300.0
21.006266120,1341.0
21.027999000,1225.0
21.049731880,1270.0
21.071464760,1196.0
21.093197640,1273.0
21.114930520,1249.0
21.136663400,1324.0
21.158396280,1281.0
21.180129160,1261.0
21.201862040,1319.0
21.223594920,1247.0
21.245327800,1236.0
21.267060680,1294.0
21.288793560,1247.0
21.310526440,1200.0
21.332259320,1188.0
21.353992200,1177.0
21.375725080,1307.0
21.397457960,1251.0
21.419190840,1228.0
21.440923720,1206.0
21.462656600,1260.0
21.484389480,1175.0
21.506122360,1264.0
21.527855240,1211.0
21.549588120,1197.0
21.571321000,1263.0
21.593053880,1237.0
21.614786760,1189.0
21.636519640,1197.0
21.658252520,1209.0
21.679985400,1151.0
21.701718280,1123.0
21.723451160,1199.0
21.745184040,1193.0
21.766916920,1245.0
21.788649800,1205.0
21.810382680,1154.0
21.832115560,1136.0
21.853848440,1135.0
21.875581320,1145.0
21.897314200,1170.0
21.919047080,1086.0
21.940779960,1126.0
21.962512840,1161.0
21.984245720,1173.0
22.005978600,1192.0
22.027711480,1159.0
22.049444360,1105.0
22.071177240,1122.0
22.092910120,1120.0
22.114643000,1177.0
22.136375880,1196.0
22.158108760,1088.0
22.179841640,1153.0
22.201574520,1130.0
22.223307400,1068.0
22.245040280,1122.0
22.266773160,1096.0
22.288506040,1126.0
22.310238920,1066.0
22.331971800,1153.0
22.353704680,1135.0
22.375437560,1091.0
22.397170440,1083.0
22.418903320,1005.0
22.440636200,1061.0
22.462369080,1075.0
22.484101960,1093.0
22.505834840,1126.0
22.527567720,1134.0
22.549300600,1115.0
22.571033480,1102.0
22.592766360,1005.0
22.614499240,1086.0
22.636232120,1095.0
22.657965000,1158.0
22.679697880,1095.0
22.701430760,1118.0
22.723163640,1063.0
22.744896520,1106.0
22.766629400,1133.0
22.788362280,1111.0
22.810095160,1099.0
22.831828040,1042.0
22.853560920,1051.0
22.875293800,1084.0
22.897026680,1113.0
22.918759560,1026.0
22.940492440,1048.0
22.962225320,1054.0
22.983958200,1058.0
23.005691080,1116.0
23.027423960,1131.0
23.049156840,1096.0
23.070889720,1071.0
23.092622600,1084.0
23.114355480,1184.0
23.136088360,1052.0
23.157821240,1163.0
23.179554120,1206.0
23.201287000,1291.0
23.223019880,1400.0
23.244752760,1734.0
23.266485640,2183.0
23.288218520,3004.0
23.309951400,3659.0
23.331684280,4102.0
23.353417160,3785.0
23.375150040,2990.0
23.396882920,2413.0
23.418615800,1890.0
23.440348680,1373.0
23.462081560,1171.0
23.483814440,1079.0
23.505547320,1161.0
23.527280200,1132.0
23.549013080,1057.0
23.570745960,1069.0
23.592478840,1029.0
23.614211720,986.0
23.635944600,1028.0
23.657677480,1025.0
23.679410360,1071.0
23.701143240,1061.0
23.722876120,1043.0
23.744609000,1007.0
23.766341880,989.0
23.788074760,970.0
23.809807640,951.0
23.831540520,1006.0
23.853273400,899.0
23.875006280,942.0
23.896739160,955.0
23.918472040,985.0
23.940204920,947.0
23.961937800,957.0
23.983670680,961.0
24.005403560,942.0
24.027136440,975.0
24.048869320,1004.0
24.070602200,1013.0
24.092335080,968.0
24.114067960,978.0
24.135800840,984.0
24.157533720,985.0
24.179266600,967.0
24.200999480,919.0
24.222732360,935.0
24.244465240,971.0
24.266198120,942.0
24.287931000,988.0
24.309663880,969.0
24.331396760,960.0
24.353129640,953.0
24.374862520,944.0
24.396595400,957.0
24.418328280,925.0
24.440061160,932.0
24.461794040,949.0
24.483526920,931.0
24.505259800,895.0
24.526992680,899.0
24.548725560,934.0
24.570458440,932.0
24.592191320,934.0
24.613924200,937.0
24.635657080,956.0
24.657389960,965.0
24.679122840,847.0
24.700855720,927.0
24.722588600,865.0
24.744321480,921.0
24.766054360,941.0
24.787787240,928.0
24.809520120,892.0
24.831253000,938.0
24.852985880,921.0
24.874718760,873.0
24.896451640,900.0
24.918184520,869.0
24.939917400,921.0
24.961650280,933.0
24.983383160,877.0
25.005116040,900.0
25.026848920,887.0
25.048581800,864.0
25.070314680,875.0
25.092047560,901.0
25.113780440,856.0
25.135513320,855.0
25.157246200,872.0
25.178979080,856.0
25.200711960,870.0
25.222444840,930.0
25.244177720,908.0
25.265910600,860.0
25.287643480,890.0
25.309376360,872.0
25.331109240,877.0
25.352842120,894.0
25.374575000,890.0
25.396307880,864.0
25.418040760,904.0
25.439773640,841.0
25.461506520,838.0
25.483239400,879.0
25.504972280,897.0
25.526705160,868.0
25.548438040,870.0
25.570170920,852.0
25.591903800,874.0
25.613636680,861.0
25.635369560,836.0
25.657102440,912.0
25.678835320,886.0
25.700568200,903.0
25.722301080,803.0
25.744033960,784.0
25.765766840,829.0
25.787499720,776.0
25.809232600,829.0
25.830965480,845.0
25.852698360,816.0
25.874431240,846.0
25.896164120,818.0
25.917897000,823.0
25.939629880,848.0
25.961362760,803.0
25.983095640,805.0
26.004828520,849.0
26.026561400,849.0
26.048294280,791.0
26.070027160,854.0
26.091760040,784.0
26.113492920,846.0
26.135225800,825.0
26.156958680,828.0
26.178691560,827.0
26.200424440,794.0
26.222157320,825.0
26.243890200,851.0
26.265623080,846.0
26.287355960,799.0
26.309088840,866.0
26.330821720,875.0
26.352554600,839.0
26.374287480,796.0
26.396020360,767.0
26.417753240,846.0
26.439486120,800.0
26.461219000,760.0
26.482951880,829.0
26.504684760,864.0
26.526417640,870.0
26.548150520,820.0
26.569883400,776.0
26.591616280,797.0
26.613349160,851.0
26.635082040,831.0
26.656814920,783.0
26.678547800,783.0
26.700280680,790.0
26.722013560,814.0
26.743746440,783.0
26.765479320,757.0
26.787212200,777.0
26.808945080,822.0
26.830677960,809.0
26.852410840,883.0
26.874143720,818.0
26.895876600,836.0
26.917609480,797.0
26.939342360,893.0
26.961075240,791.0
26.982808120,856.0
27.004541000,861.0
27.026273880,822.0
27.048006760,884.0
27.069739640,945.0
27.091472520,1000.0
27.113205400,1064.0
27.134938280,1168.0
27.156671160,1258.0
27.178404040,1445.0
27.200136920,1704.0
27.221869800,2100.0
27.243602680,2629.0
27.265335560,3306.0
27.287068440,3964.0
27.308801320,4151.0
27.330534200,3978.0
27.352267080,3352.0
27.373999960,2693.0
27.395732840,2354.0
27.417465720,1612.0
27.439198600,1289.0
27.460931480,1019.0
27.482664360,857.0
27.504397240,919.0
27.526130120,853.0
27.547863000,835.0
27.569595880,741.0
27.591328760,788.0
27.613061640,848.0
27.634794520,823.0
27.656527400,719.0
27.678260280,753.0
27.699993160,792.0
27.721726040,797.0
27.743458920,786.0
27.765191800,792.0
27.786924680,765.0
27.808657560,811.0
27.830390440,782.0
27.852123320,764.0
27.873856200,746.0
27.895589080,724.0
27.917321960,762.0
27.939054840,805.0
27.960787720,686.0
27.982520600,809.0
28.004253480,745.0
28.025986360,785.0
28.047719240,756.0
28.069452120,803.0
28.091185000,799.0
28.112917880,759.0
28.134650760,776.0
28.156383640,793.0
28.178116520,769.0
28.199849400,807.0
28.221582280,739.0
28.243315160,691.0
28.265048040,861.0
28.286780920,842.0
28.308513800,834.0
28.330246680,801.0
28.351979560,861.0
28.373712440,841.0
28.395445320,871.0
28.417178200,914.0
28.438911080,1002.0
28.460643960,1203.0
28.482376840,1274.0
28.504109720,1480.0
28.525842600,1388.0
28.547575480,1316.0
28.569308360,1231.0
28.591041240,1024.0
28.612774120,906.0
28.634507000,795.0
28.656239880,766.0
28.677972760,821.0
28.699705640,806.0
28.721438520,734.0
28.743171400,782.0
28.764904280,775.0
28.786637160,813.0
28.808370040,839.0
28.830102920,776.0
28.851835800,821.0
28.873568680,788.0
28.895301560,804.0
28.917034440,842.0
28.938767320,934.0
28.960500200,946.0
28.982233080,1062.0
29.003965960,1062.0
29.025698840,1137.0
29.047431720,1172.0
29.069164600,1147.0
29.090897480,1076.0
29.112630360,996.0
29.134363240,1056.0
29.156096120,975.0
29.177829000,832.0
29.199561880,864.0
29.221294760,793.0
29.243027640,763.0
29.264760520,776.0
29.286493400,792.0
29.308226280,772.0
29.329959160,757.0
29.351692040,733.0
29.373424920,760.0
29.395157800,715.0
29.416890680,770.0
29.438623560,747.0
29.460356440,769.0
29.482089320,720.0
29.503822200,783.0
29.525555080,742.0
29.547287960,702.0
29.569020840,776.0
29.590753720,661.0
29.612486600,774.0
29.634219480,703.0
29.655952360,773.0
29.677685240,733.0
29.699418120,734.0
29.721151000,741.0
29.742883880,751.0
29.764616760,759.0
29.786349640,723.0
29.808082520,723.0
29.829815400,721.0
29.851548280,718.0
29.873281160,786.0
29.895014040,725.0
29.916746920,694.0
29.938479800,754.0
29.960212680,733.0
29.981945560,770.0
30.003678440,743.0
30.025411320,755.0
30.047144200,748.0
30.068877080,686.0
30.090609960,703.0
30.112342840,743.0
30.134075720,793.0
30.155808600,764.0
30.177541480,766.0
30.199274360,764.0
30.221007240,776.0
30.242740120,771.0
30.264473000,739.0
30.286205880,770.0
30.307938760,758.0
30.329671640,691.0
30.351404520,810.0
30.373137400,745.0
30.394870280,774.0
30.416603160,803.0
30.438336040,811.0
30.460068920,876.0
30.481801800,873.0
30.503534680,996.0
30.525267560,1079.0
30.547000440,1119.0
30.568733320,1179.0
30.590466200,1326.0
30.612199080,1228.0
30.633931960,1323.0
30.655664840,1343.0
30.677397720,1410.0
30.699130600,1399.0
30.720863480,1334.0
30.742596360,1269.0
30.764329240,1310.0
30.786062120,1423.0
30.807795000,1382.0
30.829527880,1357.0
30.851260760,1333.0
30.872993640,1401.0
30.894726520,1354.0
30.916459400,1373.0
30.938192280,1420.0
30.959925160,1469.0
30.981658040,1466.0
31.003390920,1599.0
31.025123800,1617.0
31.046856680,1744.0
31.068589560,1695.0
31.090322440,1736.0
31.112055320,1855.0
31.133788200,1988.0
31.155521080,2096.0
31.177253960,2344.0
31.198986840,2545.0
31.220719720,2656.0
31.242452600,2969.0
31.264185480,3067.0
31.285918360,3250.0
31.307651240,3516.0
31.329384120,3591.0
31.351117000,3974.0
31.372849880,4361.0
31.394582760,5218.0
31.416315640,6247.0
31.438048520,8026.0
31.459781400,10258.0
31.481514280,14173.0
31.503247160,20416.0
31.524980040,30380.0
31.546712920,47413.0
31.568445800,70559.0
31.590178680,101936.0
31.611911560,136125.0
31.633644440,165071.0
31.655377320,179701.0
31.677110200,172231.0
31.698843080,141206.0
31.720575960,106217.0
31.742308840,84858.0
31.764041720,64011.0
31.785774600,37857.0
31.807507480,18694.0
31.829240360,10142.0
31.850973240,7301.0
31.872706120,5770.0
31.894439000,5206.0
31.916171880,4720.0
31.937904760,4171.0
31.959637640,3710.0
31.981370520,3435.0
32.003103400,3033.0
32.024836280,2670.0
32.046569160,2527.0
32.068302040,2099.0
32.090034920,1930.0
32.111767800,1795.0
32.133500680,1628.0
32.155233560,1558.0
32.176966440,1415.0
32.198699320,1436.0
32.220432200,1373.0
32.242165080,1418.0
32.263897960,1324.0
32.285630840,1318.0
32.307363720,1346.0
32.329096600,1248.0
32.350829480,1252.0
32.372562360,1270.0
32.394295240,1302.0
32.416028120,1219.0
32.437761000,1139.0
32.459493880,1172.0
32.481226760,1216.0
32.502959640,1216.0
32.524692520,1146.0
32.546425400,1112.0
32.568158280,1141.0
32.589891160,1108.0
32.611624040,1056.0
32.633356920,1061.0
32.655089800,1034.0
32.676822680,1113.0
32.698555560,1036.0
32.720288440,1096.0
32.742021320,1057.0
32.763754200,1084.0
32.785487080,1067.0
32.807219960,1037.0
32.828952840,1071.0
32.850685720,997.0
32.872418600,1031.0
32.894151480,953.0
32.915884360,1030.0
32.937617240,1039.0
32.959350120,970.0
32.981083000,955.0
33.002815880,1016.0
33.024548760,1006.0
33.046281640,999.0
33.068014520,974.0
33.089747400,972.0
33.111480280,988.0
33.133213160,932.0
33.154946040,977.0
33.176678920,1009.0
33.198411800,996.0
33.220144680,974.0
33.241877560,982.0
33.263610440,1085.0
33.285343320,1099.0
33.307076200,1079.0
33.328809080,1094.0
33.350541960,1026.0
33.372274840,1038.0
33.394007720,948.0
33.415740600,1010.0
33.437473480,910.0
33.459206360,902.0
33.480939240,913.0
33.502672120,878.0
33.524405000,888.0
33.546137880,866.0
33.567870760,862.0
33.589603640,863.0
33.611336520,851.0
33.633069400,876.0
33.654802280,828.0
33.676535160,845.0
33.698268040,814.0
33.720000920,791.0
33.741733800,905.0
33.763466680,830.0
33.785199560,855.0
33.806932440,818.0
33.828665320,825.0
33.850398200,824.0
33.872131080,831.0
33.893863960,850.0
33.915596840,821.0
33.937329720,809.0
33.959062600,807.0
33.980795480,810.0
34.002528360,858.0
34.024261240,797.0
34.045994120,760.0
34.067727000,777.0
34.089459880,843.0
34.111192760,794.0
34.132925640,799.0
34.154658520,793.0
34.176391400,804.0
34.198124280,742.0
34.219857160,750.0
34.241590040,768.0
34.263322920,800.0
34.285055800,780.0
34.306788680,770.0
34.328521560,778.0
34.350254440,811.0
34.371987320,809.0
34.393720200,765.0
34.415453080,801.0
34.437185960,787.0
34.458918840,865.0
34.480651720,811.0
34.502384600,766.0
34.524117480,829.0
34.545850360,826.0
34.567583240,754.0
34.589316120,841.0
34.611049000,705.0
34.632781880,725.0
34.654514760,811.0
34.676247640,768.0
34.697980520,780.0
34.719713400,738.0
34.741446280,731.0
34.763179160,709.0
34.784912040,730.0
34.806644920,771.0
34.828377800,738.0
34.850110680,749.0
34.871843560,704.0
34.893576440,727.0
34.915309320,712.0
34.937042200,687.0
34.958775080,745.0
34.980507960,711.0
35.002240840,652.0
35.023973720,731.0
35.045706600,697.0
35.067439480,697.0
35.089172360,690.0
35.110905240,711.0
35.132638120,706.0
35.154371000,703.0
35.176103880,659.0
35.197836760,741.0
35.219569640,745.0
35.241302520,717.0
35.263035400,716.0
35.284768280,769.0
35.306501160,828.0
35.328234040,818.0
35.349966920,839.0
35.371699800,755.0
35.393432680,768.0
35.415165560,750.0
35.436898440,732.0
35.458631320,672.0
35.480364200,676.0
35.502097080,599.0
35.523829960,627.0
35.545562840,656.0
35.567295720,665.0
35.589028600,656.0
35.610761480,680.0
35.632494360,726.0
35.654227240,666.0
35.675960120,609.0
35.697693000,668.0
35.719425880,674.0
35.741158760,633.0
35.762891640,607.0
35.784624520,632.0
35.806357400,631.0
35.828090280,663.0
35.849823160,672.0
35.871556040,694.0
35.893288920,719.0
35.915021800,651.0
35.936754680,652.0
35.958487560,682.0
35.980220440,675.0
36.001953320,664.0
36.023686200,666.0
36.045419080,663.0
36.067151960,629.0
36.088884840,638.0
36.110617720,682.0
36.132350600,610.0
36.154083480,585.0
36.175816360,616.0
36.197549240,594.0
36.219282120,600.0
36.241015000,621.0
36.262747880,571.0
36.284480760,635.0
36.306213640,587.0
36.327946520,629.0
36.349679400,639.0
36.371412280,628.0
36.393145160,603.0
36.414878040,650.0
36.436610920,574.0
36.458343800,624.0
36.480076680,602.0
36.501809560,607.0
36.523542440,638.0
36.545275320,643.0
36.567008200,607.0
36.588741080,614.0
36.610473960,642.0
36.632206840,648.0
36.653939720,625.0
36.675672600,592.0
36.697405480,586.0
36.719138360,596.0
36.740871240,590.0
36.762604120,623.0
36.784337000,608.0
36.806069880,576.0
36.827802760,551.0
36.849535640,532.0
36.871268520,573.0
36.893001400,552.0
36.914734280,568.0
36.936467160,589.0
36.958200040,588.0
36.979932920,585.0
37.001665800,556.0
37.023398680,569.0
37.045131560,535.0
37.066864440,558.0
37.088597320,555.0
37.110330200,572.0
37.132063080,546.0
37.153795960,497.0
37.175528840,565.0
37.197261720,547.0
37.218994600,520.0
37.240727480,580.0
37.262460360,516.0
37.284193240,525.0
37.305926120,548.0
37.327659000,591.0
37.349391880,552.0
37.371124760,565.0
37.392857640,549.0
37.414590520,586.0
37.436323400,550.0
37.458056280,512.0
37.479789160,559.0
37.501522040,556.0
37.523254920,574.0
37.544987800,518.0
37.566720680,559.0
37.588453560,511.0
37.610186440,552.0
37.631919320,524.0
37.653652200,520.0
37.675385080,507.0
37.697117960,577.0
37.718850840,543.0
37.740583720,498.0
37.762316600,509.0
37.784049480,501.0
37.805782360,495.0
37.827515240,509.0
37.849248120,502.0
37.870981000,484.0
37.892713880,537.0
37.914446760,490.0
37.936179640,480.0
37.957912520,491.0
37.979645400,459.0
38.001378280,470.0
38.023111160,493.0
38.044844040,515.0
38.066576920,495.0
38.088309800,546.0
38.110042680,505.0
38.131775560,503.0
38.153508440,500.0
38.175241320,522.0
38.196974200,518.0
38.218707080,515.0
38.240439960,502.0
38.262172840,521.0
38.283905720,496.0
38.305638600,486.0
38.327371480,480.0
38.349104360,470.0
38.370837240,454.0
38.392570120,481.0
38.414303000,511.0
38.436035880,561.0
38.457768760,501.0
38.479501640,527.0
38.501234520,508.0
38.522967400,506.0
38.544700280,438.0
38.566433160,461.0
38.588166040,485.0
38.609898920,500.0
38.631631800,530.0
38.653364680,500.0
38.675097560,531.0
38.696830440,508.0
38.718563320,457.0
38.740296200,465.0
38.762029080,504.0
38.783761960,507.0
38.805494840,471.0
38.827227720,458.0
38.848960600,475.0
38.870693480,465.0
38.892426360,472.0
38.914159240,475.0
38.935892120,475.0
38.957625000,493.0
38.979357880,479.0
39.001090760,445.0
39.022823640,459.0
39.044556520,455.0
39.066289400,459.0
39.088022280,483.0
39.109755160,485.0
39.131488040,459.0
39.153220920,469.0
39.174953800,450.0
39.196686680,446.0
39.218419560,512.0
39.240152440,423.0
39.261885320,467.0
39.283618200,478.0
39.305351080,478.0
39.327083960,493.0
39.348816840,493.0
39.370549720,457.0
39.392282600,483.0
39.414015480,450.0
39.435748360,474.0
39.457481240,461.0
39.479214120,456.0
39.500947000,479.0
39.522679880,489.0
39.544412760,440.0
39.566145640,442.0
39.587878520,490.0
39.609611400,432.0
39.631344280,460.0
39.653077160,510.0
39.674810040,461.0
39.696542920,444.0
39.718275800,442.0
39.740008680,450.0
39.761741560,447.0
39.783474440,454.0
39.805207320,460.0
39.826940200,425.0
39.848673080,438.0
39.870405960,431.0
39.892138840,445.0
39.913871720,475.0
39.935604600,460.0
39.957337480,420.0
39.979070360,463.0
40.000803240,466.0
40.022536120,398.0
40.044269000,466.0
40.066001880,443.0
40.087734760,421.0
40.109467640,406.0
40.131200520,432.0
40.152933400,427.0
40.174666280,408.0
40.196399160,443.0
40.218132040,462.0
40.239864920,429.0
40.261597800,423.0
40.283330680,452.0
40.305063560,460.0
40.326796440,440.0
40.348529320,417.0
40.370262200,430.0
40.391995080,457.0
40.413727960,449.0
40.435460840,500.0
40.457193720,499.0
40.478926600,410.0
40.500659480,474.0
40.522392360,485.0
40.544125240,539.0
40.565858120,487.0
40.587591000,512.0
40.609323880,498.0
40.631056760,507.0
40.652789640,522.0
40.674522520,486.0
40.696255400,509.0
40.717988280,538.0
40.739721160,551.0
40.761454040,530.0
40.783186920,591.0
40.804919800,611.0
40.826652680,589.0
40.848385560,496.0
40.870118440,482.0
40.891851320,472.0
40.913584200,439.0
40.935317080,420.0
40.957049960,428.0
40.978782840,485.0
41.000515720,455.0
41.022248600,421.0
41.043981480,427.0
41.065714360,426.0
41.087447240,443.0
41.109180120,380.0
41.130913000,406.0
41.152645880,426.0
41.174378760,390.0
41.196111640,421.0
41.217844520,435.0
41.239577400,420.0
41.261310280,413.0
41.283043160,431.0
41.304776040,405.0
41.326508920,446.0
41.348241800,400.0
41.369974680,393.0
41.391707560,396.0
41.413440440,400.0
41.435173320,429.0
41.456906200,418.0
41.478639080,406.0
41.500371960,392.0
41.522104840,459.0
41.543837720,398.0
41.565570600,377.0
41.587303480,394.0
41.609036360,378.0
41.630769240,395.0
41.652502120,368.0
41.674235000,429.0
41.695967880,395.0
41.717700760,406.0
41.739433640,360.0
41.761166520,434.0
41.782899400,421.0
41.804632280,389.0
41.826365160,374.0
41.848098040,398.0
41.869830920,447.0
41.891563800,371.0
41.913296680,387.0
41.935029560,399.0
41.956762440,401.0
41.978495320,399.0
42.000228200,374.0
42.021961080,406.0
42.043693960,421.0
42.065426840,401.0
42.087159720,372.0
42.108892600,414.0
42.130625480,422.0
42.152358360,374.0
42.174091240,411.0
42.195824120,420.0
42.217557000,394.0
42.239289880,392.0
42.261022760,405.0
42.282755640,398.0
42.304488520,387.0
42.326221400,371.0
42.347954280,402.0
42.369687160,405.0
42.391420040,406.0
42.413152920,368.0
42.434885800,374.0
42.456618680,373.0
42.478351560,332.0
42.500084440,415.0
42.521817320,378.0
42.543550200,392.0
42.565283080,394.0
42.587015960,409.0
42.608748840,335.0
42.630481720,377.0
42.652214600,382.0
42.673947480,357.0
42.695680360,404.0
42.717413240,416.0
42.739146120,380.0
42.760879000,418.0
42.782611880,379.0
42.804344760,388.0
42.826077640,386.0
42.847810520,396.0
42.869543400,382.0
42.891276280,415.0
42.913009160,384.0
42.934742040,395.0
42.956474920,357.0
42.978207800,388.0
42.999940680,423.0
43.021673560,413.0
43.043406440,381.0
43.065139320,371.0
43.086872200,396.0
43.108605080,388.0
43.130337960,381.0
43.152070840,414.0
43.173803720,419.0
43.195536600,417.0
43.217269480,467.0
43.239002360,449.0
43.260735240,464.0
43.282468120,425.0
43.304201000,466.0
43.325933880,435.0
43.347666760,427.0
43.369399640,445.0
43.391132520,435.0
43.412865400,420.0
43.434598280,454.0
43.456331160,449.0
43.478064040,427.0
43.499796920,419.0
43.521529800,433.0
43.543262680,417.0
43.564995560,449.0
43.586728440,453.0
43.608461320,379.0
43.630194200,366.0
43.651927080,410.0
43.673659960,439.0
43.695392840,476.0
43.717125720,447.0
43.738858600,446.0
43.760591480,464.0
43.782324360,423.0
43.804057240,497.0
43.825790120,488.0
43.847523000,448.0
43.869255880,467.0
43.890988760,467.0
43.912721640,480.0
43.934454520,462.0
43.956187400,501.0
43.977920280,536.0
43.999653160,525.0
44.021386040,486.0
44.043118920,479.0
44.064851800,475.0
44.086584680,522.0
44.108317560,517.0
44.130050440,500.0
44.151783320,531.0
44.173516200,522.0
44.195249080,487.0
44.216981960,491.0
44.238714840,498.0
44.260447720,517.0
44.282180600,449.0
44.303913480,476.0
44.325646360,484.0
44.347379240,506.0
44.369112120,488.0
44.390845000,475.0
44.412577880,484.0
44.434310760,497.0
44.456043640,492.0
44.477776520,500.0
44.499509400,532.0
44.521242280,521.0
44.542975160,509.0
44.564708040,505.0
44.586440920,491.0
44.608173800,489.0
44.629906680,490.0
44.651639560,509.0
44.673372440,499.0
44.695105320,510.0
44.716838200,515.0
44.738571080,512.0
44.760303960,516.0
44.782036840,504.0
44.803769720,530.0
44.825502600,613.0
44.847235480,588.0
44.868968360,624.0
44.890701240,667.0
44.912434120,709.0
44.934167000,740.0
44.955899880,750.0
44.977632760,765.0
44.999365640,835.0
45.021098520,953.0
45.042831400,980.0
45.064564280,1059.0
45.086297160,1116.0
45.108030040,1264.0
45.129762920,1370.0
45.151495800,1608.0
45.173228680,1892.0
45.194961560,2309.0
45.216694440,3015.0
45.238427320,3998.0
45.260160200,5991.0
45.281893080,8707.0
45.303625960,12403.0
45.325358840,17295.0
45.347091720,23788.0
45.368824600,30709.0
45.390557480,34550.0
45.412290360,32023.0
45.434023240,25121.0
45.455756120,19002.0
45.477489000,18041.0
45.499221880,18346.0
45.520954760,16886.0
45.542687640,12837.0
45.564420520,8197.0
45.586153400,4656.0
45.607886280,3014.0
45.629619160,2280.0
45.651352040,1648.0
45.673084920,1477.0
45.694817800,1218.0
45.716550680,1139.0
45.738283560,1006.0
45.760016440,883.0
45.781749320,785.0
45.803482200,794.0
45.825215080,725.0
45.846947960,667.0
45.868680840,642.0
45.890413720,601.0
45.912146600,619.0
45.933879480,489.0
45.955612360,539.0
45.977345240,525.0
45.999078120,508.0
46.020811000,521.0
46.042543880,496.0
46.064276760,460.0
46.086009640,480.0
46.107742520,465.0
46.129475400,504.0
46.151208280,502.0
46.172941160,464.0
46.194674040,460.0
46.216406920,481.0
46.238139800,482.0
46.259872680,507.0
46.281605560,449.0
46.303338440,424.0
46.325071320,479.0
46.346804200,462.0
46.368537080,441.0
46.390269960,470.0
46.412002840,461.0
46.433735720,432.0
46.455468600,448.0
46.477201480,427.0
46.498934360,453.0
46.520667240,462.0
46.542400120,419.0
46.564133000,444.0
46.585865880,432.0
46.607598760,414.0
46.629331640,442.0
46.651064520,392.0
46.672797400,432.0
46.694530280,409.0
46.716263160,368.0
46.737996040,433.0
46.759728920,400.0
46.781461800,413.0
46.803194680,420.0
46.824927560,409.0
46.846660440,404.0
46.868393320,401.0
46.890126200,396.0
46.911859080,418.0
46.933591960,354.0
46.955324840,409.0
46.977057720,420.0
46.998790600,398.0
47.020523480,368.0
47.042256360,393.0
47.063989240,398.0
47.085722120,362.0
47.107455000,392.0
47.129187880,407.0
47.150920760,410.0
47.172653640,413.0
47.194386520,352.0
47.216119400,363.0
47.237852280,381.0
47.259585160,401.0
47.281318040,366.0
47.303050920,387.0
47.324783800,402.0
47.346516680,395.0
47.368249560,383.0
47.389982440,373.0
47.411715320,387.0
47.433448200,424.0
47.455181080,360.0
47.476913960,377.0
47.498646840,383.0
47.520379720,390.0
47.542112600,395.0
47.563845480,377.0
47.585578360,365.0
47.607311240,393.0
47.629044120,391.0
47.650777000,453.0
47.672509880,425.0
47.694242760,467.0
47.715975640,538.0
47.737708520,599.0
47.759441400,691.0
47.781174280,688.0
47.802907160,602.0
47.824640040,525.0
47.846372920,534.0
47.868105800,522.0
47.889838680,522.0
47.911571560,523.0
47.933304440,508.0
47.955037320,428.0
47.976770200,409.0
47.998503080,361.0
48.020235960,391.0
48.041968840,386.0
48.063701720,389.0
48.085434600,381.0
48.107167480,404.0
48.128900360,359.0
48.150633240,381.0
48.172366120,351.0
48.194099000,394.0
48.215831880,407.0
48.237564760,404.0
48.259297640,390.0
48.281030520,370.0
48.302763400,417.0
48.324496280,389.0
48.346229160,383.0
48.367962040,356.0
48.389694920,391.0
48.411427800,395.0
48.433160680,395.0
48.454893560,351.0
48.476626440,384.0
48.498359320,358.0
48.520092200,404.0
48.541825080,365.0
48.563557960,391.0
48.585290840,361.0
48.607023720,356.0
48.628756600,349.0
48.650489480,345.0
48.672222360,354.0
48.693955240,371.0
48.715688120,347.0
48.737421000,386.0
48.759153880,355.0
48.780886760,361.0
48.802619640,341.0
48.824352520,342.0
48.846085400,348.0
48.867818280,349.0
48.889551160,338.0
48.911284040,340.0
48.933016920,368.0
48.954749800,377.0
48.976482680,366.0
48.998215560,347.0
49.019948440,362.0
49.041681320,352.0
49.063414200,326.0
49.085147080,312.0
49.106879960,343.0
49.128612840,345.0
49.150345720,322.0
49.172078600,345.0
49.193811480,357.0
49.215544360,349.0
49.237277240,318.0
49.259010120,299.0
49.280743000,337.0
49.302475880,316.0
49.324208760,328.0
49.345941640,330.0
49.367674520,364.0
49.389407400,340.0
49.411140280,331.0
49.432873160,325.0
49.454606040,322.0
49.476338920,334.0
49.498071800,325.0
49.519804680,303.0
49.541537560,320.0
49.563270440,345.0
49.585003320,319.0
49.606736200,348.0
49.628469080,327.0
49.650201960,353.0
49.671934840,331.0
49.693667720,338.0
49.715400600,339.0
49.737133480,320.0
49.758866360,326.0
49.780599240,323.0
49.802332120,359.0
49.824065000,315.0
49.845797880,312.0
49.867530760,348.0
49.889263640,319.0
49.910996520,320.0
49.932729400,330.0
49.954462280,331.0
49.976195160,305.0
49.997928040,345.0
50.019660920,322.0
50.041393800,327.0
50.063126680,345.0
50.084859560,337.0
50.106592440,373.0
50.128325320,362.0
50.150058200,318.0
50.171791080,323.0
50.193523960,358.0
50.215256840,328.0
50.236989720,373.0
50.258722600,354.0
50.280455480,334.0
50.302188360,376.0
50.323921240,350.0
50.345654120,360.0
50.367387000,368.0
50.389119880,326.0
50.410852760,337.0
50.432585640,333.0
50.454318520,345.0
50.476051400,324.0
50.497784280,308.0
50.519517160,346.0
50.541250040,366.0
50.562982920,324.0
50.584715800,334.0
50.606448680,347.0
50.628181560,291.0
50.649914440,310.0
50.671647320,320.0
50.693380200,328.0
50.715113080,331.0
50.736845960,312.0
50.758578840,307.0
50.780311720,328.0
50.802044600,327.0
50.823777480,294.0
50.845510360,333.0
50.867243240,319.0
50.888976120,342.0
50.910709000,314.0
50.932441880,320.0
50.954174760,319.0
50.975907640,343.0
50.997640520,343.0
51.019373400,344.0
51.041106280,317.0
51.062839160,304.0
51.084572040,311.0
51.106304920,296.0
51.128037800,325.0
51.149770680,333.0
51.171503560,328.0
51.193236440,343.0
51.214969320,316.0
51.236702200,327.0
51.258435080,297.0
51.280167960,318.0
51.301900840,303.0
51.323633720,320.0
51.345366600,312.0
51.367099480,309.0
51.388832360,314.0
51.410565240,317.0
51.432298120,307.0
51.454031000,333.0
51.475763880,300.0
51.497496760,324.0
51.519229640,312.0
51.540962520,314.0
51.562695400,323.0
51.584428280,304.0
51.606161160,285.0
51.627894040,282.0
51.649626920,301.0
51.671359800,279.0
51.693092680,304.0
51.714825560,304.0
51.736558440,316.0
51.758291320,304.0
51.780024200,304.0
51.801757080,275.0
51.823489960,250.0
51.845222840,266.0
51.866955720,278.0
51.888688600,297.0
51.910421480,275.0
51.932154360,267.0
51.953887240,276.0
51.975620120,275.0
51.997353000,272.0
52.019085880,282.0
52.040818760,262.0
52.062551640,311.0
52.084284520,312.0
52.106017400,247.0
52.127750280,293.0
52.149483160,279.0
52.171216040,278.0
52.192948920,336.0
52.214681800,321.0
52.236414680,282.0
52.258147560,265.0
52.279880440,297.0
52.301613320,271.0
52.323346200,288.0
52.345079080,292.0
52.366811960,278.0
52.388544840,271.0
52.410277720,292.0
52.432010600,273.0
52.453743480,296.0
52.475476360,293.0
52.497209240,281.0
52.518942120,277.0
52.540675000,292.0
52.562407880,245.0
52.584140760,290.0
52.605873640,261.0
52.627606520,282.0
52.649339400,268.0
52.671072280,239.0
52.692805160,256.0
52.714538040,273.0
52.736270920,261.0
52.758003800,266.0
52.779736680,274.0
52.801469560,279.0
52.823202440,275.0
52.844935320,274.0
52.866668200,260.0
52.888401080,258.0
52.910133960,236.0
52.931866840,259.0
52.953599720,287.0
52.975332600,284.0
52.997065480,246.0
53.018798360,260.0
53.040531240,272.0
53.062264120,260.0
53.083997000,266.0
53.105729880,277.0
53.127462760,264.0
53.149195640,267.0
53.170928520,264.0
53.192661400,244.0
53.214394280,297.0
53.236127160,274.0
53.257860040,257.0
53.279592920,288.0
53.301325800,287.0
53.323058680,310.0
53.344791560,279.0
53.366524440,298.0
53.388257320,281.0
53.409990200,268.0
53.431723080,284.0
53.453455960,283.0
53.475188840,282.0
53.496921720,275.0
53.518654600,296.0
53.540387480,302.0
53.562120360,340.0
53.583853240,336.0
53.605586120,352.0
53.627319000,316.0
53.649051880,318.0
53.670784760,428.0
53.692517640,462.0
53.714250520,532.0
53.735983400,679.0
53.757716280,781.0
53.779449160,829.0
53.801182040,955.0
53.822914920,903.0
53.844647800,803.0
53.866380680,701.0
53.888113560,622.0
53.909846440,618.0
53.931579320,613.0
53.953312200,649.0
53.975045080,576.0
53.996777960,529.0
54.018510840,420.0
54.040243720,360.0
54.061976600,323.0
54.083709480,327.0
54.105442360,291.0
54.127175240,279.0
54.148908120,281.0
54.170641000,263.0
54.192373880,280.0
54.214106760,286.0
54.235839640,283.0
54.257572520,271.0
54.279305400,294.0
54.301038280,292.0
54.322771160,283.0
54.344504040,274.0
54.366236920,282.0
54.387969800,288.0
54.409702680,303.0
54.431435560,316.0
54.453168440,247.0
54.474901320,308.0
54.496634200,296.0
54.518367080,310.0
54.540099960,269.0
54.561832840,260.0
54.583565720,250.0
54.605298600,298.0
54.627031480,268.0
54.648764360,261.0
54.670497240,311.0
54.692230120,273.0
54.713963000,288.0
54.735695880,223.0
54.757428760,244.0
54.779161640,250.0
54.800894520,264.0
54.822627400,283.0
54.844360280,291.0
54.866093160,256.0
54.887826040,266.0
54.909558920,278.0
54.931291800,272.0
54.953024680,297.0
54.974757560,278.0
54.996490440,275.0
55.018223320,272.0
55.039956200,334.0
55.061689080,284.0
55.083421960,314.0
55.105154840,299.0
55.126887720,285.0
55.148620600,265.0
55.170353480,279.0
55.192086360,300.0
55.213819240,336.0
55.235552120,334.0
55.257285000,305.0
55.279017880,278.0
55.300750760,264.0
55.322483640,313.0
55.344216520,289.0
55.365949400,275.0
55.387682280,285.0
55.409415160,327.0
55.431148040,281.0
55.452880920,313.0
55.474613800,288.0
55.496346680,308.0
55.518079560,279.0
55.539812440,258.0
55.561545320,266.0
55.583278200,277.0
55.605011080,270.0
55.626743960,335.0
55.648476840,318.0
55.670209720,278.0
55.691942600,308.0
55.713675480,297.0
55.735408360,283.0
55.757141240,307.0
55.778874120,280.0
55.800607000,302.0
55.822339880,321.0
55.844072760,292.0
55.865805640,343.0
55.887538520,330.0
55.909271400,365.0
55.931004280,366.0
55.952737160,349.0
55.974470040,325.0
55.996202920,340.0
56.017935800,398.0
56.039668680,377.0
56.061401560,427.0
56.083134440,399.0
56.104867320,464.0
56.126600200,451.0
56.148333080,496.0
56.170065960,545.0
56.191798840,648.0
56.213531720,684.0
56.235264600,890.0
56.256997480,1073.0
56.278730360,1573.0
56.300463240,2189.0
56.322196120,3274.0
56.343929000,4617.0
56.365661880,6009.0
56.387394760,6778.0
56.409127640,6590.0
56.430860520,5567.0
56.452593400,4312.0
56.474326280,3723.0
56.496059160,3667.0
56.517792040,3808.0
56.539524920,3782.0
56.561257800,3667.0
56.582990680,2928.0
56.604723560,2182.0
56.626456440,1549.0
56.648189320,1112.0
56.669922200,831.0
56.691655080,722.0
56.713387960,556.0
56.735120840,540.0
56.756853720,471.0
56.778586600,420.0
56.800319480,397.0
56.822052360,396.0
56.843785240,384.0
56.865518120,339.0
56.887251000,396.0
56.908983880,331.0
56.930716760,358.0
56.952449640,332.0
56.974182520,304.0
56.995915400,298.0
57.017648280,236.0
57.039381160,314.0
57.061114040,274.0
57.082846920,270.0
57.104579800,328.0
57.126312680,251.0
57.148045560,299.0
57.169778440,263.0
57.191511320,266.0
57.213244200,281.0
57.234977080,249.0
57.256709960,302.0
57.278442840,265.0
57.300175720,264.0
57.321908600,280.0
57.343641480,267.0
57.365374360,246.0
57.387107240,230.0
57.408840120,283.0
57.430573000,258.0
57.452305880,234.0
57.474038760,243.0
57.495771640,240.0
57.517504520,248.0
57.539237400,231.0
57.560970280,292.0
57.582703160,306.0
57.604436040,275.0
57.626168920,288.0
57.647901800,235.0
57.669634680,289.0
57.691367560,290.0
57.713100440,246.0
57.734833320,245.0
57.756566200,246.0
57.778299080,244.0
57.800031960,242.0
57.821764840,285.0
57.843497720,246.0
57.865230600,213.0
57.886963480,238.0
57.908696360,277.0
57.930429240,257.0
57.952162120,264.0
57.973895000,293.0
57.995627880,244.0
58.017360760,262.0
58.039093640,218.0
58.060826520,275.0
58.082559400,274.0
58.104292280,233.0
58.126025160,272.0
58.147758040,215.0
58.169490920,234.0
58.191223800,245.0
58.212956680,234.0
58.234689560,228.0
58.256422440,280.0
58.278155320,241.0
58.299888200,221.0
58.321621080,232.0
58.343353960,243.0
58.365086840,288.0
58.386819720,233.0
58.408552600,242.0
58.430285480,259.0
58.452018360,204.0
58.473751240,238.0
58.495484120,228.0
58.517217000,246.0
58.538949880,225.0
58.560682760,248.0
58.582415640,212.0
58.604148520,223.0
58.625881400,202.0
58.647614280,236.0
58.669347160,228.0
58.691080040,231.0
58.712812920,217.0
58.734545800,261.0
58.756278680,248.0
58.778011560,242.0
58.799744440,231.0
58.821477320,208.0
58.843210200,235.0
58.864943080,208.0
58.886675960,233.0
58.908408840,269.0
58.930141720,238.0
58.951874600,216.0
58.973607480,257.0
58.995340360,256.0
59.017073240,242.0
59.038806120,226.0
59.060539000,245.0
59.082271880,305.0
59.104004760,274.0
59.125737640,276.0
59.147470520,229.0
59.169203400,230.0
59.190936280,213.0
59.212669160,217.0
59.234402040,203.0
59.256134920,247.0
59.277867800,242.0
59.299600680,263.0
59.321333560,229.0
59.343066440,230.0
59.364799320,208.0
59.386532200,232.0
59.408265080,208.0
59.429997960,230.0
59.451730840,207.0
59.473463720,217.0
59.495196600,226.0
59.516929480,267.0
59.538662360,247.0
59.560395240,228.0
59.582128120,242.0
59.603861000,210.0
59.625593880,235.0
59.647326760,234.0
59.669059640,217.0
59.690792520,237.0
59.712525400,224.0
59.734258280,221.0
59.755991160,223.0
59.777724040,228.0
59.799456920,195.0
59.821189800,231.0
59.842922680,201.0
59.864655560,256.0
59.886388440,233.0
59.908121320,220.0
59.929854200,226.0
59.951587080,230.0
59.973319960,233.0
59.995052840,214.0
60.016785720,197.0
60.038518600,202.0
60.060251480,221.0
60.081984360,219.0
60.103717240,210.0
60.125450120,208.0
60.147183000,213.0
60.168915880,210.0
60.190648760,214.0
60.212381640,200.0
60.234114520,188.0
60.255847400,209.0
60.277580280,219.0
60.299313160,246.0
60.321046040,227.0
60.342778920,218.0
60.364511800,219.0
60.386244680,199.0
60.407977560,228.0
60.429710440,206.0
60.451443320,195.0
60.473176200,234.0
60.494909080,228.0
60.516641960,224.0
60.538374840,210.0
60.560107720,219.0
60.581840600,228.0
60.603573480,237.0
60.625306360,227.0
60.647039240,209.0
60.668772120,227.0
60.690505000,225.0
60.712237880,195.0
60.733970760,234.0
60.755703640,204.0
60.777436520,231.0
60.799169400,244.0
60.820902280,240.0
60.842635160,212.0
60.864368040,232.0
60.886100920,221.0
60.907833800,243.0
60.929566680,238.0
60.951299560,234.0
60.973032440,227.0
60.994765320,219.0
61.016498200,238.0
61.038231080,225.0
61.059963960,209.0
61.081696840,217.0
61.103429720,226.0
61.125162600,202.0
61.146895480,198.0
61.168628360,199.0
61.190361240,238.0
61.212094120,236.0
61.233827000,218.0
61.255559880,197.0
61.277292760,207.0
61.299025640,223.0
61.320758520,230.0
61.342491400,218.0
61.364224280,210.0
61.385957160,225.0
61.407690040,211.0
61.429422920,208.0
61.451155800,220.0
61.472888680,233.0
61.494621560,202.0
61.516354440,221.0
61.538087320,260.0
61.559820200,237.0
61.581553080,206.0
61.603285960,217.0
61.625018840,230.0
61.646751720,219.0
61.668484600,194.0
61.690217480,239.0
61.711950360,248.0
61.733683240,228.0
61.755416120,210.0
61.777149000,203.0
61.798881880,211.0
61.820614760,224.0
61.842347640,205.0
61.864080520,214.0
61.885813400,215.0
61.907546280,212.0
61.929279160,217.0
61.951012040,206.0
61.972744920,236.0
61.994477800,209.0
62.016210680,189.0
62.037943560,229.0
62.059676440,201.0
62.081409320,198.0
62.103142200,213.0
62.124875080,222.0
62.146607960,197.0
62.168340840,239.0
62.190073720,215.0
62.211806600,202.0
62.233539480,209.0
62.255272360,213.0
62.277005240,239.0
62.298738120,214.0
62.320471000,226.0
62.342203880,213.0
62.363936760,205.0
62.385669640,206.0
62.407402520,203.0
62.429135400,217.0
62.450868280,229.0
62.472601160,232.0
62.494334040,228.0
62.516066920,224.0
62.537799800,219.0
62.559532680,209.0
62.581265560,184.0
62.602998440,200.0
62.624731320,224.0
62.646464200,205.0
62.668197080,205.0
62.689929960,234.0
62.711662840,185.0
62.733395720,208.0
62.755128600,170.0
62.776861480,220.0
62.798594360,223.0
62.820327240,209.0
62.842060120,194.0
62.863793000,207.0
62.885525880,208.0
62.907258760,172.0
62.928991640,219.0
62.950724520,227.0
62.972457400,200.0
62.994190280,206.0
63.015923160,203.0
63.037656040,183.0
63.059388920,221.0
63.081121800,201.0
63.102854680,194.0
63.124587560,194.0
63.146320440,226.0
63.168053320,212.0
63.189786200,202.0
63.211519080,200.0
63.233251960,201.0
63.254984840,229.0
63.276717720,181.0
63.298450600,179.0
63.320183480,224.0
63.341916360,189.0
63.363649240,192.0
63.385382120,207.0
63.407115000,190.0
63.428847880,231.0
63.450580760,217.0
63.472313640,209.0
63.494046520,216.0
63.515779400,199.0
63.537512280,229.0
63.559245160,207.0
63.580978040,202.0
63.602710920,233.0
63.624443800,240.0
63.646176680,247.0
63.667909560,193.0
63.689642440,215.0
63.711375320,261.0
63.733108200,231.0
63.754841080,249.0
63.776573960,257.0
63.798306840,240.0
63.820039720,266.0
63.841772600,218.0
63.863505480,221.0
63.885238360,240.0
63.906971240,248.0
63.928704120,248.0
63.950437000,249.0
63.972169880,237.0
63.993902760,246.0
64.015635640,227.0
64.037368520,247.0
64.059101400,200.0
64.080834280,225.0
64.102567160,245.0
64.124300040,229.0
64.146032920,223.0
64.167765800,208.0
64.189498680,250.0
64.211231560,225.0
64.232964440,236.0
64.254697320,194.0
64.276430200,198.0
64.298163080,226.0
64.319895960,224.0
64.341628840,236.0
64.363361720,213.0
64.385094600,256.0
64.406827480,202.0
64.428560360,224.0
64.450293240,205.0
64.472026120,217.0
64.493759000,232.0
64.515491880,234.0
64.537224760,239.0
64.558957640,234.0
64.580690520,224.0
64.602423400,259.0
64.624156280,265.0
64.645889160,236.0
64.667622040,233.0
64.689354920,280.0
64.711087800,257.0
64.732820680,286.0
64.754553560,249.0
64.776286440,244.0
64.798019320,244.0
64.819752200,264.0
64.841485080,257.0
64.863217960,249.0
64.884950840,242.0
64.906683720,231.0
64.928416600,285.0
64.950149480,243.0
64.971882360,278.0
64.993615240,241.0
65.015348120,243.0
65.037081000,264.0
65.058813880,269.0
65.080546760,250.0
65.102279640,229.0
65.124012520,248.0
65.145745400,256.0
65.167478280,266.0
65.189211160,257.0
65.210944040,239.0
65.232676920,244.0
65.254409800,224.0
65.276142680,245.0
65.297875560,263.0
65.319608440,259.0
65.341341320,240.0
65.363074200,249.0
65.384807080,260.0
65.406539960,282.0
65.428272840,272.0
65.450005720,286.0
65.471738600,229.0
65.493471480,287.0
65.515204360,294.0
65.536937240,274.0
65.558670120,288.0
65.580403000,297.0
65.602135880,264.0
65.623868760,318.0
65.645601640,331.0
65.667334520,321.0
65.689067400,362.0
65.710800280,389.0
65.732533160,394.0
65.754266040,431.0
65.775998920,438.0
65.797731800,430.0
65.819464680,484.0
65.841197560,533.0
65.862930440,500.0
65.884663320,575.0
65.906396200,609.0
65.928129080,586.0
65.949861960,676.0
65.971594840,741.0
65.993327720,865.0
66.015060600,1129.0
66.036793480,1515.0
66.058526360,2236.0
66.080259240,3311.0
66.101992120,4902.0
66.123725000,6666.0
66.145457880,8489.0
66.167190760,9658.0
66.188923640,9221.0
66.210656520,7357.0
66.232389400,5278.0
66.254122280,3797.0
66.275855160,3518.0
66.297588040,3754.0
66.319320920,4298.0
66.341053800,4872.0
66.362786680,4966.0
66.384519560,4443.0
66.406252440,3386.0
66.427985320,2140.0
66.449718200,1535.0
66.471451080,1041.0
66.493183960,815.0
66.514916840,661.0
66.536649720,616.0
66.558382600,509.0
66.580115480,458.0
66.601848360,432.0
66.623581240,389.0
66.645314120,416.0
66.667047000,387.0
66.688779880,383.0
66.710512760,312.0
66.732245640,336.0
66.753978520,307.0
66.775711400,277.0
66.797444280,299.0
66.819177160,311.0
66.840910040,316.0
66.862642920,299.0
66.884375800,298.0
66.906108680,261.0
66.927841560,311.0
66.949574440,288.0
66.971307320,282.0
66.993040200,267.0
67.014773080,247.0
67.036505960,244.0
67.058238840,238.0
67.079971720,278.0
67.101704600,242.0
67.123437480,285.0
67.145170360,237.0
67.166903240,271.0
67.188636120,249.0
67.210369000,268.0
67.232101880,288.0
67.253834760,267.0
67.275567640,227.0
67.297300520,247.0
67.319033400,226.0
67.340766280,225.0
67.362499160,263.0
67.384232040,245.0
67.405964920,278.0
67.427697800,267.0
67.449430680,246.0
67.471163560,223.0
67.492896440,231.0
67.514629320,220.0
67.536362200,230.0
67.558095080,219.0
67.579827960,258.0
67.601560840,261.0
67.623293720,221.0
67.645026600,230.0
67.666759480,258.0
67.688492360,245.0
67.710225240,236.0
67.731958120,236.0
67.753691000,247.0
67.775423880,256.0
67.797156760,209.0
67.818889640,261.0
67.840622520,227.0
67.862355400,239.0
67.884088280,219.0
67.905821160,226.0
67.927554040,233.0
67.949286920,259.0
67.971019800,248.0
67.992752680,220.0
68.014485560,196.0
68.036218440,209.0
68.057951320,235.0
68.079684200,265.0
68.101417080,211.0
68.123149960,226.0
68.144882840,212.0
68.166615720,215.0
68.188348600,258.0
68.210081480,235.0
68.231814360,208.0
68.253547240,216.0
68.275280120,211.0
68.297013000,212.0
68.318745880,209.0
68.340478760,192.0
68.362211640,223.0
68.383944520,231.0
68.405677400,198.0
68.427410280,214.0
68.449143160,236.0
68.470876040,206.0
68.492608920,257.0
68.514341800,226.0
68.536074680,266.0
68.557807560,242.0
68.579540440,279.0
68.601273320,231.0
68.623006200,248.0
68.644739080,246.0
68.666471960,270.0
68.688204840,273.0
68.709937720,227.0
68.731670600,235.0
68.753403480,220.0
68.775136360,241.0
68.796869240,213.0
68.818602120,232.0
68.840335000,215.0
68.862067880,232.0
68.883800760,231.0
68.905533640,219.0
68.927266520,216.0
68.948999400,219.0
68.970732280,228.0
68.992465160,226.0
69.014198040,231.0
69.035930920,203.0
69.057663800,226.0
69.079396680,233.0
69.101129560,205.0
69.122862440,206.0
69.144595320,214.0
69.166328200,206.0
69.188061080,259.0
69.209793960,224.0
69.231526840,189.0
69.253259720,199.0
69.274992600,177.0
69.296725480,198.0
69.318458360,206.0
69.340191240,209.0
69.361924120,234.0
69.383657000,230.0
69.405389880,248.0
69.427122760,222.0
69.448855640,225.0
69.470588520,183.0
69.492321400,210.0
69.514054280,203.0
69.535787160,212.0
69.557520040,215.0
69.579252920,221.0
69.600985800,203.0
69.622718680,203.0
69.644451560,204.0
69.666184440,197.0
69.687917320,211.0
69.709650200,211.0
69.731383080,192.0
69.753115960,216.0
69.774848840,204.0
69.796581720,216.0
69.818314600,229.0
69.840047480,218.0
69.861780360,210.0
69.883513240,234.0
69.905246120,214.0
69.926979000,229.0
69.948711880,200.0
69.970444760,229.0
69.992177640,226.0
70.013910520,215.0
70.035643400,196.0
70.057376280,233.0
70.079109160,202.0
70.100842040,211.0
70.122574920,243.0
70.144307800,191.0
70.166040680,215.0
70.187773560,217.0
70.209506440,215.0
70.231239320,225.0
70.252972200,219.0
70.274705080,191.0
70.296437960,200.0
70.318170840,209.0
70.339903720,229.0
70.361636600,226.0
70.383369480,210.0
70.405102360,211.0
70.426835240,214.0
70.448568120,213.0
70.470301000,220.0
70.492033880,206.0
70.513766760,222.0
70.535499640,199.0
70.557232520,202.0
70.578965400,213.0
70.600698280,207.0
70.622431160,210.0
70.644164040,216.0
70.665896920,201.0
70.687629800,216.0
70.709362680,208.0
70.731095560,200.0
70.752828440,213.0
70.774561320,213.0
70.796294200,221.0
70.818027080,209.0
70.839759960,230.0
70.861492840,228.0
70.883225720,217.0
70.904958600,202.0
70.926691480,225.0
70.948424360,213.0
70.970157240,228.0
70.991890120,218.0
71.013623000,213.0
71.035355880,227.0
71.057088760,248.0
71.078821640,219.0
71.100554520,214.0
71.122287400,211.0
71.144020280,201.0
71.165753160,233.0
71.187486040,216.0
71.209218920,193.0
71.230951800,221.0
71.252684680,192.0
71.274417560,212.0
71.296150440,209.0
71.317883320,198.0
71.339616200,200.0
71.361349080,221.0
71.383081960,216.0
71.404814840,226.0
71.426547720,186.0
71.448280600,197.0
71.470013480,209.0
71.491746360,223.0
71.513479240,209.0
71.535212120,205.0
71.556945000,187.0
71.578677880,212.0
71.600410760,191.0
71.622143640,187.0
71.643876520,234.0
71.665609400,215.0
71.687342280,225.0
71.709075160,183.0
71.730808040,188.0
71.752540920,179.0
71.774273800,222.0
71.796006680,204.0
71.817739560,204.0
71.839472440,219.0
71.861205320,182.0
71.882938200,218.0
71.904671080,192.0
71.926403960,212.0
71.948136840,199.0
71.969869720,207.0
71.991602600,213.0
72.013335480,186.0
72.035068360,211.0
72.056801240,185.0
72.078534120,196.0
72.100267000,202.0
72.121999880,204.0
72.143732760,195.0
72.165465640,214.0
72.187198520,207.0
72.208931400,216.0
72.230664280,204.0
72.252397160,227.0
72.274130040,189.0
72.295862920,218.0
72.317595800,219.0
72.339328680,219.0
72.361061560,231.0
72.382794440,242.0
72.404527320,221.0
72.426260200,215.0
72.447993080,237.0
72.469725960,187.0
72.491458840,225.0
72.513191720,221.0
72.534924600,208.0
72.556657480,230.0
72.578390360,214.0
72.600123240,229.0
72.621856120,214.0
72.643589000,222.0
72.665321880,245.0
72.687054760,258.0
72.708787640,222.0
72.730520520,248.0
72.752253400,223.0
72.773986280,246.0
72.795719160,234.0
72.817452040,223.0
72.839184920,257.0
72.860917800,243.0
72.882650680,294.0
72.904383560,332.0
72.926116440,366.0
72.947849320,411.0
72.969582200,411.0
72.991315080,445.0
73.013047960,511.0
73.034780840,466.0
73.056513720,417.0
73.078246600,386.0
73.099979480,349.0
73.121712360,310.0
73.143445240,356.0
73.165178120,324.0
73.186911000,321.0
73.208643880,345.0
73.230376760,358.0
73.252109640,333.0
73.273842520,299.0
73.295575400,266.0
73.317308280,295.0
73.339041160,261.0
73.360774040,237.0
73.382506920,263.0
73.404239800,232.0
73.425972680,244.0
73.447705560,220.0
73.469438440,257.0
73.491171320,221.0
73.512904200,195.0
73.534637080,235.0
73.556369960,214.0
73.578102840,236.0
73.599835720,223.0
73.621568600,216.0
73.643301480,230.0
73.665034360,212.0
73.686767240,244.0
73.708500120,228.0
73.730233000,220.0
73.751965880,229.0
73.773698760,220.0
73.795431640,250.0
73.817164520,221.0
73.838897400,234.0
73.860630280,240.0
73.882363160,208.0
73.904096040,205.0
73.925828920,258.0
73.947561800,234.0
73.969294680,219.0
73.991027560,222.0
74.012760440,212.0
74.034493320,258.0
74.056226200,203.0
74.077959080,276.0
74.099691960,225.0
74.121424840,242.0
74.143157720,258.0
74.164890600,263.0
74.186623480,266.0
74.208356360,225.0
74.230089240,220.0
74.251822120,246.0
74.273555000,256.0
74.295287880,248.0
74.317020760,244.0
74.338753640,263.0
74.360486520,247.0
74.382219400,243.0
74.403952280,243.0
74.425685160,215.0
74.447418040,245.0
74.469150920,235.0
74.490883800,266.0
74.512616680,225.0
74.534349560,245.0
74.556082440,242.0
74.577815320,242.0
74.599548200,273.0
74.621281080,300.0
74.643013960,285.0
74.664746840,278.0
74.686479720,306.0
74.708212600,286.0
74.729945480,312.0
74.751678360,299.0
74.773411240,380.0
74.795144120,400.0
74.816877000,436.0
74.838609880,454.0
74.860342760,445.0
74.882075640,452.0
74.903808520,415.0
74.925541400,456.0
74.947274280,488.0
74.969007160,493.0
74.990740040,597.0
75.012472920,669.0
75.034205800,788.0
75.055938680,886.0
75.077671560,1151.0
75.099404440,1555.0
75.121137320,1991.0
75.142870200,2548.0
75.164603080,3145.0
75.186335960,3840.0
75.208068840,4315.0
75.229801720,4423.0
75.251534600,4070.0
75.273267480,3599.0
75.295000360,2931.0
75.316733240,2409.0
75.338466120,2135.0
75.360199000,2025.0
75.381931880,2135.0
75.403664760,2342.0
75.425397640,2513.0
75.447130520,2481.0
75.468863400,2357.0
75.490596280,1943.0
75.512329160,1566.0
75.534062040,1260.0
75.555794920,952.0
75.577527800,682.0
75.599260680,620.0
75.620993560,554.0
75.642726440,470.0
75.664459320,489.0
75.686192200,412.0
75.707925080,333.0
75.729657960,350.0
75.751390840,337.0
75.773123720,327.0
75.794856600,302.0
75.816589480,280.0
75.838322360,269.0
75.860055240,271.0
75.881788120,236.0
75.903521000,241.0
75.925253880,256.0
75.946986760,241.0
75.968719640,246.0
75.990452520,263.0
76.012185400,271.0
76.033918280,232.0
76.055651160,249.0
76.077384040,270.0
76.099116920,274.0
76.120849800,270.0
76.142582680,229.0
76.164315560,231.0
76.186048440,207.0
76.207781320,243.0
76.229514200,216.0
76.251247080,217.0
76.272979960,231.0
76.294712840,216.0
76.316445720,241.0
76.338178600,258.0
76.359911480,257.0
76.381644360,243.0
76.403377240,220.0
76.425110120,234.0
76.446843000,207.0
76.468575880,205.0
76.490308760,217.0
76.512041640,226.0
76.533774520,217.0
76.555507400,247.0
76.577240280,236.0
76.598973160,205.0
76.620706040,223.0
76.642438920,241.0
76.664171800,219.0
76.685904680,224.0
76.707637560,213.0
76.729370440,199.0
76.751103320,214.0
76.772836200,224.0
76.794569080,196.0
76.816301960,223.0
76.838034840,205.0
76.859767720,223.0
76.881500600,213.0
76.903233480,212.0
76.924966360,218.0
76.946699240,217.0
76.968432120,208.0
76.990165000,225.0
77.011897880,221.0
77.033630760,214.0
77.055363640,205.0
77.077096520,207.0
77.098829400,195.0
77.120562280,175.0
77.142295160,188.0
77.164028040,202.0
77.185760920,222.0
77.207493800,207.0
77.229226680,220.0
77.250959560,217.0
77.272692440,225.0
77.294425320,232.0
77.316158200,216.0
77.337891080,195.0
77.359623960,190.0
77.381356840,209.0
77.403089720,200.0
77.424822600,199.0
77.446555480,227.0
77.468288360,202.0
77.490021240,207.0
77.511754120,219.0
77.533487000,204.0
77.555219880,228.0
77.576952760,185.0
77.598685640,198.0
77.620418520,222.0
77.642151400,223.0
77.663884280,215.0
77.685617160,206.0
77.707350040,208.0
77.729082920,202.0
77.750815800,186.0
77.772548680,204.0
77.794281560,211.0
77.816014440,167.0
77.837747320,184.0
77.859480200,198.0
77.881213080,207.0
77.902945960,210.0
77.924678840,202.0
77.946411720,172.0
77.968144600,175.0
77.989877480,200.0
78.011610360,178.0
78.033343240,199.0
78.055076120,193.0
78.076809000,159.0
78.098541880,180.0
78.120274760,191.0
78.142007640,198.0
78.163740520,215.0
78.185473400,215.0
78.207206280,197.0
78.228939160,214.0
78.250672040,185.0
78.272404920,179.0
78.294137800,199.0
78.315870680,199.0
78.337603560,213.0
78.359336440,211.0
78.381069320,189.0
78.402802200,186.0
78.424535080,199.0
78.446267960,174.0
78.468000840,196.0
78.489733720,195.0
78.511466600,174.0
78.533199480,193.0
78.554932360,190.0
78.576665240,182.0
78.598398120,198.0
78.620131000,197.0
78.641863880,168.0
78.663596760,171.0
78.685329640,175.0
78.707062520,191.0
78.728795400,169.0
78.750528280,178.0
78.772261160,189.0
78.793994040,210.0
78.815726920,188.0
78.837459800,175.0
78.859192680,185.0
78.880925560,177.0
78.902658440,197.0
78.924391320,205.0
78.946124200,183.0
78.967857080,221.0
78.989589960,182.0
79.011322840,179.0
79.033055720,180.0
79.054788600,200.0
79.076521480,189.0
79.098254360,191.0
79.119987240,184.0
79.141720120,174.0
79.163453000,185.0
79.185185880,189.0
79.206918760,165.0
79.228651640,184.0
79.250384520,180.0
79.272117400,208.0
79.293850280,182.0
79.315583160,175.0
79.337316040,182.0
79.359048920,159.0
79.380781800,216.0
79.402514680,212.0
79.424247560,204.0
79.445980440,203.0
79.467713320,212.0
79.489446200,168.0
79.511179080,148.0
79.532911960,205.0
79.554644840,192.0
79.576377720,193.0
79.598110600,194.0
79.619843480,194.0
79.641576360,187.0
79.663309240,187.0
79.685042120,209.0
79.706775000,201.0
79.728507880,199.0
79.750240760,192.0
79.771973640,205.0
79.793706520,187.0
79.815439400,193.0
79.837172280,167.0
79.858905160,165.0
79.880638040,178.0
79.902370920,193.0
79.924103800,201.0
79.945836680,174.0
79.967569560,197.0
79.989302440,200.0
80.011035320,174.0
80.032768200,206.0
80.054501080,221.0
80.076233960,196.0
80.097966840,190.0
80.119699720,174.0
80.141432600,207.0
80.163165480,172.0
80.184898360,194.0
80.206631240,185.0
80.228364120,199.0
80.250097000,175.0
80.271829880,186.0
80.293562760,187.0
80.315295640,175.0
80.337028520,201.0
80.358761400,186.0
80.380494280,176.0
80.402227160,200.0
80.423960040,182.0
80.445692920,180.0
80.467425800,178.0
80.489158680,186.0
80.510891560,178.0
80.532624440,165.0
80.554357320,158.0
80.576090200,177.0
80.597823080,208.0
80.619555960,155.0
80.641288840,206.0
80.663021720,178.0
80.684754600,193.0
80.706487480,153.0
80.728220360,194.0
80.749953240,173.0
80.771686120,195.0
80.793419000,178.0
80.815151880,174.0
80.836884760,188.0
80.858617640,183.0
80.880350520,194.0
80.902083400,204.0
80.923816280,206.0
80.945549160,211.0
80.967282040,174.0
80.989014920,179.0
81.010747800,177.0
81.032480680,223.0
81.054213560,174.0
81.075946440,191.0
81.097679320,163.0
81.119412200,148.0
81.141145080,173.0
81.162877960,201.0
81.184610840,185.0
81.206343720,181.0
81.228076600,188.0
81.249809480,192.0
81.271542360,170.0
81.293275240,168.0
81.315008120,173.0
81.336741000,194.0
81.358473880,188.0
81.380206760,183.0
81.401939640,196.0
81.423672520,183.0
81.445405400,183.0
81.467138280,201.0
81.488871160,177.0
81.510604040,162.0
81.532336920,184.0
81.554069800,162.0
81.575802680,200.0
81.597535560,180.0
81.619268440,176.0
81.641001320,208.0
81.662734200,175.0
81.684467080,174.0
81.706199960,195.0
81.727932840,197.0
81.749665720,199.0
81.771398600,193.0
81.793131480,219.0
81.814864360,188.0
81.836597240,175.0
81.858330120,181.0
81.880063000,176.0
81.901795880,191.0
81.923528760,218.0
81.945261640,206.0
81.966994520,202.0
81.988727400,177.0
82.010460280,161.0
82.032193160,172.0
82.053926040,191.0
82.075658920,190.0
82.097391800,179.0
82.119124680,173.0
82.140857560,184.0
82.162590440,182.0
82.184323320,182.0
82.206056200,171.0
82.227789080,171.0
82.249521960,192.0
82.271254840,170.0
82.292987720,197.0
82.314720600,177.0
82.336453480,191.0
82.358186360,192.0
82.379919240,207.0
82.401652120,195.0
82.423385000,156.0
82.445117880,189.0
82.466850760,184.0
82.488583640,194.0
82.510316520,193.0
82.532049400,164.0
82.553782280,171.0
82.575515160,201.0
82.597248040,207.0
82.618980920,199.0
82.640713800,193.0
82.662446680,196.0
82.684179560,206.0
82.705912440,195.0
82.727645320,172.0
82.749378200,171.0
82.771111080,179.0
82.792843960,178.0
82.814576840,189.0
82.836309720,185.0
82.858042600,185.0
82.879775480,219.0
82.901508360,183.0
82.923241240,184.0
82.944974120,189.0
82.966707000,202.0
82.988439880,203.0
83.010172760,184.0
83.031905640,220.0
83.053638520,182.0
83.075371400,217.0
83.097104280,204.0
83.118837160,190.0
83.140570040,194.0
83.162302920,199.0
83.184035800,219.0
83.205768680,214.0
83.227501560,182.0
83.249234440,194.0
83.270967320,216.0
83.292700200,203.0
83.314433080,213.0
83.336165960,211.0
83.357898840,229.0
83.379631720,231.0
83.401364600,210.0
83.423097480,250.0
83.444830360,226.0
83.466563240,276.0
83.488296120,248.0
83.510029000,276.0
83.531761880,271.0
83.553494760,293.0
83.575227640,276.0
83.596960520,314.0
83.618693400,298.0
83.640426280,310.0
83.662159160,364.0
83.683892040,400.0
83.705624920,433.0
83.727357800,539.0
83.749090680,635.0
83.770823560,758.0
83.792556440,927.0
83.814289320,1167.0
83.836022200,1587.0
83.857755080,1987.0
83.879487960,2299.0
83.901220840,2494.0
83.922953720,2685.0
83.944686600,2503.0
83.966419480,2212.0
83.988152360,1815.0
84.009885240,1538.0
84.031618120,1345.0
84.053351000,1206.0
84.075083880,1183.0
84.096816760,1251.0
84.118549640,1362.0
84.140282520,1448.0
84.162015400,1561.0
84.183748280,1569.0
84.205481160,1376.0
84.227214040,1204.0
84.248946920,983.0
84.270679800,833.0
84.292412680,653.0
84.314145560,525.0
84.335878440,450.0
84.357611320,452.0
84.379344200,347.0
84.401077080,334.0
84.422809960,343.0
84.444542840,281.0
84.466275720,276.0
84.488008600,282.0
84.509741480,248.0
84.531474360,244.0
84.553207240,211.0
84.574940120,222.0
84.596673000,239.0
84.618405880,235.0
84.640138760,213.0
84.661871640,203.0
84.683604520,198.0
84.705337400,183.0
84.727070280,209.0
84.748803160,216.0
84.770536040,201.0
84.792268920,208.0
84.814001800,179.0
84.835734680,180.0
84.857467560,193.0
84.879200440,196.0
84.900933320,210.0
84.922666200,197.0
84.944399080,203.0
84.966131960,207.0
84.987864840,199.0
85.009597720,184.0
85.031330600,170.0
85.053063480,196.0
85.074796360,177.0
85.096529240,191.0
85.118262120,191.0
85.139995000,209.0
85.161727880,212.0
85.183460760,195.0
85.205193640,169.0
85.226926520,197.0
85.248659400,183.0
85.270392280,193.0
85.292125160,200.0
85.313858040,200.0
85.335590920,202.0
85.357323800,166.0
85.379056680,180.0
85.400789560,162.0
85.422522440,176.0
85.444255320,179.0
85.465988200,175.0
85.487721080,196.0
85.509453960,182.0
85.531186840,185.0
85.552919720,189.0
85.574652600,183.0
85.596385480,163.0
85.618118360,148.0
85.639851240,145.0
85.661584120,195.0
85.683317000,200.0
85.705049880,174.0
85.726782760,161.0
85.748515640,173.0
85.770248520,180.0
85.791981400,192.0
85.813714280,171.0
85.835447160,167.0
85.857180040,159.0
85.878912920,176.0
85.900645800,157.0
85.922378680,171.0
85.944111560,179.0
85.965844440,155.0
85.987577320,141.0
86.009310200,174.0
86.031043080,182.0
86.052775960,187.0
86.074508840,186.0
86.096241720,185.0
86.117974600,174.0
86.139707480,136.0
86.161440360,148.0
86.183173240,178.0
86.204906120,157.0
86.226639000,191.0
86.248371880,152.0
86.270104760,166.0
86.291837640,177.0
86.313570520,180.0
86.335303400,161.0
86.357036280,163.0
86.378769160,182.0
86.400502040,176.0
86.422234920,159.0
86.443967800,168.0
86.465700680,169.0
86.487433560,149.0
86.509166440,180.0
86.530899320,161.0
86.552632200,183.0
86.574365080,156.0
86.596097960,181.0
86.617830840,153.0
86.639563720,134.0
86.661296600,174.0
86.683029480,166.0
86.704762360,151.0
86.726495240,177.0
86.748228120,158.0
86.769961000,176.0
86.791693880,174.0
86.813426760,178.0
86.835159640,177.0
86.856892520,159.0
86.878625400,172.0
86.900358280,159.0
86.922091160,142.0
86.943824040,178.0
86.965556920,176.0
86.987289800,155.0
87.009022680,180.0
87.030755560,159.0
87.052488440,157.0
87.074221320,175.0
87.095954200,168.0
87.117687080,154.0
87.139419960,174.0
87.161152840,143.0
87.182885720,164.0
87.204618600,162.0
87.226351480,171.0
87.248084360,122.0
87.269817240,134.0
87.291550120,185.0
87.313283000,165.0
87.335015880,158.0
87.356748760,165.0
87.378481640,149.0
87.400214520,161.0
87.421947400,169.0
87.443680280,163.0
87.465413160,145.0
87.487146040,144.0
87.508878920,183.0
87.530611800,149.0
87.552344680,170.0
87.574077560,156.0
87.595810440,162.0
87.617543320,178.0
87.639276200,151.0
87.661009080,140.0
87.682741960,153.0
87.704474840,139.0
87.726207720,135.0
87.747940600,152.0
87.769673480,178.0
87.791406360,161.0
87.813139240,150.0
87.834872120,163.0
87.856605000,162.0
87.878337880,147.0
87.900070760,164.0
87.921803640,164.0
87.943536520,153.0
87.965269400,161.0
87.987002280,150.0
88.008735160,137.0
88.030468040,136.0
88.052200920,155.0
88.073933800,132.0
88.095666680,146.0
88.117399560,160.0
88.139132440,187.0
88.160865320,175.0
88.182598200,164.0
88.204331080,157.0
88.226063960,179.0
88.247796840,152.0
88.269529720,174.0
88.291262600,148.0
88.312995480,165.0
88.334728360,157.0
88.356461240,152.0
88.378194120,153.0
88.399927000,160.0
88.421659880,166.0
88.443392760,149.0
88.465125640,170.0
88.486858520,182.0
88.508591400,156.0
88.530324280,178.0
88.552057160,168.0
88.573790040,165.0
88.595522920,176.0
88.617255800,168.0
88.638988680,143.0
88.660721560,156.0
88.682454440,152.0
88.704187320,164.0
88.725920200,162.0
88.747653080,172.0
88.769385960,158.0
88.791118840,163.0
88.812851720,171.0
88.834584600,155.0
88.856317480,165.0
88.878050360,159.0
88.899783240,153.0
88.921516120,147.0
88.943249000,166.0
88.964981880,165.0
88.986714760,139.0
89.008447640,180.0
89.030180520,147.0
89.051913400,145.0
89.073646280,148.0
89.095379160,186.0
89.117112040,173.0
89.138844920,172.0
89.160577800,171.0
89.182310680,175.0
89.204043560,154.0
89.225776440,179.0
89.247509320,166.0
89.269242200,175.0
89.290975080,141.0
89.312707960,147.0
89.334440840,148.0
89.356173720,149.0
89.377906600,157.0
89.399639480,165.0
89.421372360,185.0
89.443105240,138.0
89.464838120,170.0
89.486571000,153.0
89.508303880,142.0
89.530036760,148.0
89.551769640,149.0
89.573502520,134.0
89.595235400,133.0
89.616968280,145.0
89.638701160,169.0
89.660434040,124.0
89.682166920,160.0
89.703899800,168.0
89.725632680,155.0
89.747365560,163.0
89.769098440,196.0
89.790831320,146.0
89.812564200,178.0
89.834297080,152.0
89.856029960,135.0
89.877762840,154.0
89.899495720,180.0
89.921228600,155.0
89.942961480,160.0
89.964694360,161.0
89.986427240,159.0
90.008160120,165.0
90.029893000,171.0
90.051625880,184.0
90.073358760,190.0
90.095091640,167.0
90.116824520,195.0
90.138557400,200.0
90.160290280,211.0
90.182023160,213.0
90.203756040,201.0
90.225488920,237.0
90.247221800,321.0
90.268954680,313.0
90.290687560,379.0
90.312420440,444.0
90.334153320,398.0
90.355886200,414.0
90.377619080,412.0
90.399351960,334.0
90.421084840,324.0
90.442817720,320.0
90.464550600,286.0
90.486283480,291.0
90.508016360,281.0
90.529749240,262.0
90.551482120,270.0
90.573215000,294.0
90.594947880,311.0
90.616680760,300.0
90.638413640,302.0
90.660146520,283.0
90.681879400,242.0
90.703612280,246.0
90.725345160,242.0
90.747078040,210.0
90.768810920,182.0
90.790543800,203.0
90.812276680,170.0
90.834009560,174.0
90.855742440,176.0
90.877475320,163.0
90.899208200,167.0
90.920941080,146.0
90.942673960,169.0
90.964406840,161.0
90.986139720,167.0
91.007872600,172.0
91.029605480,179.0
91.051338360,154.0
91.073071240,153.0
91.094804120,144.0
91.116537000,152.0
91.138269880,175.0
91.160002760,132.0
91.181735640,144.0
91.203468520,173.0
91.225201400,144.0
91.246934280,151.0
91.268667160,151.0
91.290400040,147.0
91.312132920,146.0
91.333865800,178.0
91.355598680,160.0
91.377331560,147.0
91.399064440,155.0
91.420797320,161.0
91.442530200,152.0
91.464263080,152.0
91.485995960,164.0
91.507728840,144.0
91.529461720,143.0
91.551194600,157.0
91.572927480,148.0
91.594660360,137.0
91.616393240,150.0
91.638126120,145.0
91.659859000,163.0
91.681591880,150.0
91.703324760,137.0
91.725057640,146.0
91.746790520,157.0
91.768523400,158.0
91.790256280,145.0
91.811989160,120.0
91.833722040,130.0
91.855454920,145.0
91.877187800,148.0
91.898920680,145.0
91.920653560,153.0
91.942386440,160.0
91.964119320,132.0
91.985852200,166.0
92.007585080,153.0
92.029317960,177.0
92.051050840,163.0
92.072783720,145.0
92.094516600,159.0
92.116249480,139.0
92.137982360,132.0
92.159715240,193.0
92.181448120,155.0
92.203181000,177.0
92.224913880,143.0
92.246646760,151.0
92.268379640,183.0
92.290112520,167.0
92.311845400,148.0
92.333578280,184.0
92.355311160,157.0
92.377044040,166.0
92.398776920,139.0
92.420509800,148.0
92.442242680,143.0
92.463975560,157.0
92.485708440,136.0
92.507441320,160.0
92.529174200,160.0
92.550907080,166.0
92.572639960,159.0
92.594372840,158.0
92.616105720,179.0
92.637838600,128.0
92.659571480,151.0
92.681304360,150.0
92.703037240,148.0
92.724770120,174.0
92.746503000,162.0
92.768235880,153.0
92.789968760,148.0
92.811701640,185.0
92.833434520,162.0
92.855167400,137.0
92.876900280,177.0
92.898633160,145.0
92.920366040,131.0
92.942098920,147.0
92.963831800,155.0
92.985564680,145.0
93.007297560,145.0
93.029030440,155.0
93.050763320,155.0
93.072496200,158.0
93.094229080,136.0
93.115961960,138.0
93.137694840,133.0
93.159427720,157.0
93.181160600,160.0
93.202893480,144.0
93.224626360,162.0
93.246359240,153.0
93.268092120,159.0
93.289825000,141.0
93.311557880,148.0
93.333290760,159.0
93.355023640,152.0
93.376756520,156.0
93.398489400,155.0
93.420222280,160.0
93.441955160,156.0
93.463688040,134.0
93.485420920,158.0
93.507153800,156.0
93.528886680,151.0
93.550619560,160.0
93.572352440,144.0
93.594085320,138.0
93.615818200,150.0
93.637551080,175.0
93.659283960,154.0
93.681016840,117.0
93.702749720,137.0
93.724482600,147.0
93.746215480,126.0
93.767948360,126.0
93.789681240,130.0
93.811414120,162.0
93.833147000,169.0
93.854879880,141.0
93.876612760,144.0
93.898345640,146.0
93.920078520,151.0
93.941811400,130.0
93.963544280,150.0
93.985277160,175.0
94.007010040,136.0
94.028742920,159.0
94.050475800,152.0
94.072208680,156.0
94.093941560,144.0
94.115674440,153.0
94.137407320,156.0
94.159140200,164.0
94.180873080,142.0
94.202605960,134.0
94.224338840,139.0
94.246071720,155.0
94.267804600,161.0
94.289537480,155.0
94.311270360,143.0
94.333003240,145.0
94.354736120,159.0
94.376469000,141.0
94.398201880,143.0
94.419934760,159.0
94.441667640,142.0
94.463400520,150.0
94.485133400,162.0
94.506866280,143.0
94.528599160,174.0
94.550332040,156.0
94.572064920,131.0
94.593797800,161.0
94.615530680,151.0
94.637263560,165.0
94.658996440,155.0
94.680729320,139.0
94.702462200,158.0
94.724195080,162.0
94.745927960,163.0
94.767660840,153.0
94.789393720,148.0
94.811126600,160.0
94.832859480,163.0
94.854592360,163.0
94.876325240,165.0
94.898058120,147.0
94.919791000,156.0
94.941523880,124.0
94.963256760,152.0
94.984989640,130.0
95.006722520,142.0
95.028455400,157.0
95.050188280,140.0
95.071921160,153.0
95.093654040,144.0
95.115386920,147.0
95.137119800,166.0
95.158852680,174.0
95.180585560,169.0
95.202318440,138.0
95.224051320,163.0
95.245784200,143.0
95.267517080,141.0
95.289249960,130.0
95.310982840,161.0
95.332715720,153.0
95.354448600,134.0
95.376181480,154.0
95.397914360,148.0
95.419647240,158.0
95.441380120,156.0
95.463113000,168.0
95.484845880,168.0
95.506578760,157.0
95.528311640,153.0
95.550044520,160.0
95.571777400,182.0
95.593510280,143.0
95.615243160,153.0
95.636976040,138.0
95.658708920,145.0
95.680441800,137.0
95.702174680,133.0
95.723907560,127.0
95.745640440,164.0
95.767373320,145.0
95.789106200,134.0
95.810839080,157.0
95.832571960,159.0
95.854304840,152.0
95.876037720,166.0
95.897770600,140.0
95.919503480,161.0
95.941236360,142.0
95.962969240,153.0
95.984702120,165.0
96.006435000,161.0
96.028167880,174.0
96.049900760,140.0
96.071633640,146.0
96.093366520,155.0
96.115099400,145.0
96.136832280,128.0
96.158565160,126.0
96.180298040,157.0
96.202030920,142.0
96.223763800,150.0
96.245496680,149.0
96.267229560,154.0
96.288962440,142.0
96.310695320,159.0
96.332428200,154.0
96.354161080,150.0
96.375893960,155.0
96.397626840,159.0
96.419359720,158.0
96.441092600,151.0
96.462825480,138.0
96.484558360,148.0
96.506291240,153.0
96.528024120,154.0
96.549757000,137.0
96.571489880,152.0
96.593222760,158.0
96.614955640,158.0
96.636688520,140.0
96.658421400,150.0
96.680154280,144.0
96.701887160,146.0
96.723620040,147.0
96.745352920,153.0
96.767085800,136.0
96.788818680,165.0
96.810551560,167.0
96.832284440,140.0
96.854017320,147.0
96.875750200,127.0
96.897483080,136.0
96.919215960,150.0
96.940948840,145.0
96.962681720,162.0
96.984414600,161.0
97.006147480,134.0
97.027880360,160.0
97.049613240,150.0
97.071346120,145.0
97.093079000,159.0
97.114811880,153.0
97.136544760,166.0
97.158277640,128.0
97.180010520,150.0
97.201743400,144.0
97.223476280,148.0
97.245209160,158.0
97.266942040,157.0
97.288674920,140.0
97.310407800,159.0
97.332140680,158.0
97.353873560,161.0
97.375606440,153.0
97.397339320,140.0
97.419072200,141.0
97.440805080,158.0
97.462537960,157.0
97.484270840,142.0
97.506003720,165.0
97.527736600,140.0
97.549469480,138.0
97.571202360,150.0
97.592935240,146.0
97.614668120,170.0
97.636401000,159.0
97.658133880,150.0
97.679866760,159.0
97.701599640,143.0
97.723332520,145.0
97.745065400,173.0
97.766798280,150.0
97.788531160,154.0
97.810264040,155.0
97.831996920,150.0
97.853729800,158.0
97.875462680,159.0
97.897195560,147.0
97.918928440,153.0
97.940661320,158.0
97.962394200,135.0
97.984127080,155.0
98.005859960,163.0
98.027592840,162.0
98.049325720,164.0
98.071058600,151.0
98.092791480,157.0
98.114524360,147.0
98.136257240,167.0
98.157990120,168.0
98.179723000,159.0
98.201455880,164.0
98.223188760,148.0
98.244921640,164.0
98.266654520,152.0
98.288387400,131.0
98.310120280,169.0
98.331853160,144.0
98.353586040,163.0
98.375318920,174.0
98.397051800,168.0
98.418784680,156.0
98.440517560,129.0
98.462250440,167.0
98.483983320,151.0
98.505716200,163.0
98.527449080,181.0
98.549181960,138.0
98.570914840,141.0
98.592647720,159.0
98.614380600,168.0
98.636113480,147.0
98.657846360,158.0
98.679579240,170.0
98.701312120,151.0
98.723045000,154.0
98.744777880,165.0
98.766510760,148.0
98.788243640,167.0
98.809976520,173.0
98.831709400,169.0
98.853442280,154.0
98.875175160,138.0
98.896908040,177.0
98.918640920,163.0
98.940373800,158.0
98.962106680,162.0
98.983839560,164.0
99.005572440,148.0
99.027305320,162.0
99.049038200,169.0
99.070771080,159.0
99.092503960,164.0
99.114236840,145.0
99.135969720,167.0
99.157702600,141.0
99.179435480,158.0
99.201168360,170.0
99.222901240,152.0
99.244634120,169.0
99.266367000,178.0
99.288099880,168.0
99.309832760,144.0
99.331565640,168.0
99.353298520,168.0
99.375031400,164.0
99.396764280,189.0
99.418497160,169.0
99.440230040,139.0
99.461962920,161.0
99.483695800,147.0
99.505428680,158.0
99.527161560,165.0
99.548894440,151.0
99.570627320,181.0
99.592360200,181.0
99.614093080,189.0
99.635825960,132.0
99.657558840,149.0
99.679291720,167.0
99.701024600,148.0
99.722757480,170.0
99.744490360,152.0
99.766223240,163.0
99.787956120,169.0
99.809689000,160.0
99.831421880,178.0
99.853154760,180.0
99.874887640,173.0
99.896620520,181.0
99.918353400,177.0
99.940086280,176.0
99.961819160,154.0
99.983552040,156.0
100.005284920,164.0
100.027017800,155.0
100.048750680,172.0
100.070483560,180.0
100.092216440,189.0
100.113949320,173.0
100.135682200,173.0
100.157415080,152.0
100.179147960,157.0
100.200880840,136.0
100.222613720,186.0
100.244346600,180.0
100.266079480,186.0
100.287812360,177.0
100.309545240,166.0
100.331278120,186.0
100.353011000,152.0
100.374743880,174.0
100.396476760,171.0
100.418209640,192.0
100.439942520,184.0
100.461675400,175.0
100.483408280,188.0
100.505141160,177.0
100.526874040,176.0
100.548606920,194.0
100.570339800,190.0
100.592072680,188.0
100.613805560,194.0
100.635538440,198.0
100.657271320,177.0
100.679004200,219.0
100.700737080,224.0
100.722469960,231.0
100.744202840,233.0
100.765935720,256.0
100.787668600,219.0
100.809401480,211.0
100.831134360,257.0
100.852867240,238.0
100.874600120,327.0
100.896333000,331.0
100.918065880,358.0
100.939798760,390.0
100.961531640,488.0
100.983264520,574.0
101.004997400,727.0
101.026730280,805.0
101.048463160,978.0
101.070196040,1109.0
101.091928920,1196.0
101.113661800,1207.0
101.135394680,1228.0
101.157127560,1143.0
101.178860440,936.0
101.200593320,805.0
101.222326200,687.0
101.244059080,660.0
101.265791960,555.0
101.287524840,521.0
101.309257720,507.0
101.330990600,528.0
101.352723480,526.0
101.374456360,570.0
101.396189240,670.0
101.417922120,725.0
101.439655000,742.0
101.461387880,740.0
101.483120760,668.0
101.504853640,641.0
101.526586520,567.0
101.548319400,496.0
101.570052280,407.0
101.591785160,370.0
101.613518040,339.0
101.635250920,264.0
101.656983800,273.0
101.678716680,272.0
101.700449560,222.0
101.722182440,191.0
101.743915320,200.0
101.765648200,207.0
101.787381080,186.0
101.809113960,214.0
101.830846840,195.0
101.852579720,210.0
101.874312600,167.0
101.896045480,198.0
101.917778360,209.0
101.939511240,200.0
101.961244120,148.0
101.982977000,185.0
102.004709880,184.0
102.026442760,167.0
102.048175640,198.0
102.069908520,185.0
102.091641400,169.0
102.113374280,172.0
102.135107160,162.0
102.156840040,169.0
102.178572920,172.0
102.200305800,166.0
102.222038680,184.0
102.243771560,175.0
102.265504440,216.0
102.287237320,194.0
102.308970200,168.0
102.330703080,169.0
102.352435960,184.0
102.374168840,184.0
102.395901720,185.0
102.417634600,189.0
102.439367480,159.0
102.461100360,188.0
102.482833240,160.0
102.504566120,183.0
102.526299000,181.0
102.548031880,163.0
102.569764760,177.0
102.591497640,169.0
102.613230520,161.0
102.634963400,172.0
102.656696280,174.0
102.678429160,168.0
102.700162040,160.0
102.721894920,181.0
102.743627800,152.0
102.765360680,162.0
102.787093560,178.0
102.808826440,161.0
102.830559320,177.0
102.852292200,155.0
102.874025080,179.0
102.895757960,183.0
102.917490840,166.0
102.939223720,159.0
102.960956600,183.0
102.982689480,162.0
103.004422360,170.0
103.026155240,168.0
103.047888120,180.0
103.069621000,181.0
103.091353880,165.0
103.113086760,154.0
103.134819640,175.0
103.156552520,142.0
103.178285400,173.0
103.200018280,168.0
103.221751160,172.0
103.243484040,180.0
103.265216920,177.0
103.286949800,162.0
103.308682680,195.0
103.330415560,169.0
103.352148440,192.0
103.373881320,148.0
103.395614200,202.0
103.417347080,170.0
103.439079960,170.0
103.460812840,163.0
103.482545720,163.0
103.504278600,160.0
103.526011480,184.0
103.547744360,173.0
103.569477240,186.0
103.591210120,174.0
103.612943000,161.0
103.634675880,144.0
103.656408760,168.0
103.678141640,179.0
103.699874520,193.0
103.721607400,157.0
103.743340280,156.0
103.765073160,175.0
103.786806040,178.0
103.808538920,155.0
103.830271800,157.0
103.852004680,170.0
103.873737560,191.0
103.895470440,165.0
103.917203320,153.0
103.938936200,165.0
103.960669080,180.0
103.982401960,178.0
104.004134840,174.0
104.025867720,170.0
104.047600600,164.0
104.069333480,172.0
104.091066360,142.0
104.112799240,162.0
104.134532120,154.0
104.156265000,177.0
104.177997880,187.0
104.199730760,175.0
104.221463640,168.0
104.243196520,183.0
104.264929400,159.0
104.286662280,180.0
104.308395160,166.0
104.330128040,178.0
104.351860920,181.0
104.373593800,163.0
104.395326680,144.0
104.417059560,170.0
104.438792440,161.0
104.460525320,175.0
104.482258200,174.0
104.503991080,159.0
104.525723960,164.0
104.547456840,187.0
104.569189720,189.0
104.590922600,165.0
104.612655480,172.0
104.634388360,174.0
104.656121240,188.0
104.677854120,183.0
104.699587000,160.0
104.721319880,169.0
104.743052760,167.0
104.764785640,171.0
104.786518520,187.0
104.808251400,179.0
104.829984280,189.0
104.851717160,191.0
104.873450040,174.0
104.895182920,168.0
104.916915800,175.0
104.938648680,176.0
104.960381560,194.0
104.982114440,160.0
105.003847320,197.0
105.025580200,168.0
105.047313080,166.0
105.069045960,165.0
105.090778840,162.0
105.112511720,187.0
105.134244600,149.0
105.155977480,180.0
105.177710360,196.0
105.199443240,161.0
105.221176120,189.0
105.242909000,177.0
105.264641880,190.0
105.286374760,168.0
105.308107640,173.0
105.329840520,192.0
105.351573400,183.0
105.373306280,167.0
105.395039160,179.0
105.416772040,204.0
105.438504920,167.0
105.460237800,183.0
105.481970680,192.0
105.503703560,175.0
105.525436440,178.0
105.547169320,168.0
105.568902200,164.0
105.590635080,150.0
105.612367960,194.0
105.634100840,188.0
105.655833720,189.0
105.677566600,155.0
105.699299480,176.0
105.721032360,200.0
105.742765240,179.0
105.764498120,175.0
105.786231000,162.0
105.807963880,189.0
105.829696760,165.0
105.851429640,156.0
105.873162520,195.0
105.894895400,174.0
105.916628280,163.0
105.938361160,178.0
105.960094040,163.0
105.981826920,174.0
106.003559800,178.0
106.025292680,177.0
106.047025560,189.0
106.068758440,178.0
106.090491320,185.0
106.112224200,167.0
106.133957080,206.0
106.155689960,187.0
106.177422840,188.0
106.199155720,175.0
106.220888600,181.0
106.242621480,175.0
106.264354360,187.0
106.286087240,196.0
106.307820120,178.0
106.329553000,182.0
106.351285880,164.0
106.373018760,178.0
106.394751640,192.0
106.416484520,205.0
106.438217400,175.0
106.459950280,163.0
106.481683160,180.0
106.503416040,174.0
106.525148920,199.0
106.546881800,172.0
106.568614680,206.0
106.590347560,203.0
106.612080440,170.0
106.633813320,199.0
106.655546200,187.0
106.677279080,198.0
106.699011960,180.0
106.720744840,193.0
106.742477720,188.0
106.764210600,172.0
106.785943480,193.0
106.807676360,191.0
106.829409240,167.0
106.851142120,179.0
106.872875000,201.0
106.894607880,196.0
106.916340760,175.0
106.938073640,183.0
106.959806520,193.0
106.981539400,170.0
107.003272280,179.0
107.025005160,167.0
107.046738040,192.0
107.068470920,197.0
107.090203800,186.0
107.111936680,218.0
107.133669560,186.0
107.155402440,181.0
107.177135320,198.0
107.198868200,183.0
107.220601080,191.0
107.242333960,185.0
107.264066840,212.0
107.285799720,206.0
107.307532600,205.0
107.329265480,172.0
107.350998360,183.0
107.372731240,211.0
107.394464120,200.0
107.416197000,207.0
107.437929880,199.0
107.459662760,221.0
107.481395640,222.0
107.503128520,244.0
107.524861400,274.0
107.546594280,241.0
107.568327160,278.0
107.590060040,304.0
107.611792920,319.0
107.633525800,317.0
107.655258680,386.0
107.676991560,418.0
107.698724440,383.0
107.720457320,432.0
107.742190200,376.0
107.763923080,396.0
107.785655960,361.0
107.807388840,358.0
107.829121720,325.0
107.850854600,315.0
107.872587480,291.0
107.894320360,264.0
107.916053240,273.0
107.937786120,263.0
107.959519000,260.0
107.981251880,264.0
108.002984760,288.0
108.024717640,314.0
108.046450520,302.0
108.068183400,313.0
108.089916280,310.0
108.111649160,298.0
108.133382040,334.0
108.155114920,299.0
108.176847800,317.0
108.198580680,298.0
108.220313560,274.0
108.242046440,239.0
108.263779320,272.0
108.285512200,223.0
108.307245080,244.0
108.328977960,213.0
108.350710840,236.0
108.372443720,234.0
108.394176600,218.0
108.415909480,213.0
108.437642360,240.0
108.459375240,236.0
108.481108120,204.0
108.502841000,221.0
108.524573880,237.0
108.546306760,202.0
108.568039640,213.0
108.589772520,200.0
108.611505400,213.0
108.633238280,203.0
108.654971160,190.0
108.676704040,179.0
108.698436920,265.0
108.720169800,212.0
108.741902680,217.0
108.763635560,199.0
108.785368440,220.0
108.807101320,176.0
108.828834200,225.0
108.850567080,214.0
108.872299960,193.0
108.894032840,208.0
108.915765720,199.0
108.937498600,205.0
108.959231480,205.0
108.980964360,227.0
109.002697240,237.0
109.024430120,209.0
109.046163000,214.0
109.067895880,213.0
109.089628760,218.0
109.111361640,233.0
109.133094520,207.0
109.154827400,248.0
109.176560280,238.0
109.198293160,246.0
109.220026040,224.0
109.241758920,229.0
109.263491800,227.0
109.285224680,213.0
109.306957560,237.0
109.328690440,267.0
109.350423320,239.0
109.372156200,249.0
109.393889080,262.0
109.415621960,244.0
109.437354840,263.0
109.459087720,288.0
109.480820600,278.0
109.502553480,280.0
109.524286360,307.0
109.546019240,288.0
109.567752120,345.0
109.589485000,297.0
109.611217880,315.0
109.632950760,336.0
109.654683640,348.0
109.676416520,396.0
109.698149400,401.0
109.719882280,437.0
109.741615160,487.0
109.763348040,577.0
109.785080920,596.0
109.806813800,666.0
109.828546680,835.0
109.850279560,1019.0
109.872012440,1196.0
109.893745320,1509.0
109.915478200,1759.0
109.937211080,2111.0
109.958943960,2522.0
109.980676840,2652.0
110.002409720,2644.0
